time,velocity,ratio,centerX,Xmax,Xmin,Ymax
0,0,1,2.75,1.75,3.75,1
0.01,0.018187,1.00001,2.74991,1.74991,3.7499,1
0.02,0.0339863,1.00002,2.74965,1.74966,3.74963,1
0.03,0.0478315,1.00005,2.74924,1.74928,3.7492,1.00001
0.04,0.0600288,1.00008,2.7487,1.74876,3.74865,1.00002
0.05,0.0708676,1.0001,2.74804,1.74812,3.74798,1.00003
0.06,0.0805273,1.00012,2.74729,1.74737,3.74721,1.00004
0.07,0.0891864,1.00014,2.74644,1.74654,3.74635,1.00004
0.08,0.0969992,1.00015,2.74551,1.74562,3.74541,1.00004
0.09,0.104093,1.00015,2.7445,1.74462,3.7444,1.00003
0.1,0.110563,1.00014,2.74343,1.74355,3.74332,1.00002
0.11,0.116545,1.00012,2.74229,1.74241,3.74219,1.00001
0.12,0.12213,1.00011,2.7411,1.74122,3.74101,1.00001
0.13,0.127311,1.00009,2.73985,1.73995,3.73979,1.00001
0.14,0.132212,1.00009,2.73856,1.73864,3.73852,1.00003
0.15,0.13682,1.00009,2.73721,1.73729,3.73719,1.00004
0.16,0.141139,1.00011,2.73582,1.73591,3.7358,1.00005
0.17,0.145133,1.00013,2.73439,1.7345,3.73435,1.00005
0.18,0.148648,1.00015,2.73293,1.73305,3.73286,1.00005
0.19,0.151846,1.00016,2.73142,1.73155,3.73134,1.00005
0.2,0.154796,1.00016,2.72989,1.73002,3.7298,1.00005
0.21,0.157525,1.00015,2.72833,1.72846,3.72822,1.00004
0.22,0.160097,1.00015,2.72674,1.72688,3.72663,1.00002
0.23,0.162608,1.00016,2.72513,1.72527,3.72501,1.00003
0.24,0.165052,1.00016,2.72349,1.72362,3.72339,1.00004
0.25,0.167529,1.00016,2.72183,1.72195,3.72175,1.00006
0.26,0.169973,1.00016,2.72015,1.72027,3.72007,1.00007
0.27,0.172227,1.00018,2.71844,1.71858,3.71835,1.00007
0.28,0.174082,1.0002,2.71671,1.71687,3.7166,1.00007
0.29,0.175786,1.0002,2.71496,1.71512,3.71483,1.00006
0.3,0.177373,1.0002,2.71319,1.71335,3.71305,1.00005
0.31,0.178867,1.00019,2.71141,1.71157,3.71127,1.00004
0.32,0.180402,1.0002,2.70962,1.70978,3.70946,1.00005
0.33,0.181975,1.0002,2.70781,1.70796,3.70767,1.00006
0.34,0.183665,1.0002,2.70598,1.70613,3.70587,1.00007
0.35,0.185388,1.0002,2.70413,1.70429,3.70404,1.00008
0.36,0.186837,1.00022,2.70227,1.70245,3.70217,1.00008
0.37,0.187952,1.00023,2.7004,1.70058,3.70028,1.00007
0.38,0.189007,1.00022,2.69852,1.6987,3.69837,1.00006
0.39,0.190003,1.00022,2.69662,1.6968,3.69647,1.00005
0.4,0.191027,1.00022,2.69472,1.6949,3.69456,1.00005
0.41,0.192109,1.00023,2.6928,1.69298,3.69265,1.00006
0.42,0.193344,1.00022,2.69088,1.69104,3.69075,1.00007
0.43,0.194676,1.00022,2.68894,1.6891,3.68883,1.00008
0.44,0.195891,1.00023,2.68698,1.68716,3.68688,1.00008
0.45,0.196679,1.00023,2.68502,1.68521,3.6849,1.00008
0.46,0.197388,1.00023,2.68305,1.68324,3.6829,1.00007
0.47,0.198069,1.00023,2.68108,1.68127,3.68092,1.00005
0.48,0.198808,1.00024,2.67909,1.67929,3.67892,1.00006
0.49,0.199628,1.00025,2.6771,1.6773,3.67694,1.00007
0.5,0.200652,1.00025,2.6751,1.67529,3.67496,1.00008
0.51,0.20176,1.00025,2.67309,1.67328,3.67297,1.00009
0.52,0.202666,1.00025,2.67107,1.67127,3.67095,1.00009
0.53,0.203215,1.00026,2.66904,1.66925,3.6689,1.00008
0.54,0.203725,1.00025,2.66701,1.66721,3.66685,1.00007
0.55,0.204214,1.00024,2.66497,1.66517,3.6648,1.00006
0.56,0.204802,1.00026,2.66292,1.66313,3.66275,1.00007
0.57,0.205473,1.00027,2.66087,1.66108,3.6607,1.00008
0.58,0.206363,1.00026,2.65881,1.65901,3.65867,1.00009
0.59,0.207341,1.00026,2.65675,1.65695,3.65661,1.0001
0.6,0.207897,1.00027,2.65467,1.65489,3.65453,1.00009
0.61,0.208278,1.00027,2.65259,1.65281,3.65243,1.00008
0.62,0.208632,1.00027,2.65051,1.65073,3.65033,1.00007
0.63,0.209012,1.00028,2.64842,1.64865,3.64823,1.00007
0.64,0.209496,1.0003,2.64633,1.64657,3.64613,1.00008
0.65,0.210169,1.0003,2.64423,1.64446,3.64405,1.00009
0.66,0.210997,1.00029,2.64212,1.64235,3.64197,1.0001
0.67,0.211701,1.0003,2.64001,1.64026,3.63986,1.0001
0.68,0.211957,1.00031,2.63789,1.63816,3.63773,1.00009
0.69,0.212208,1.00031,2.63577,1.63603,3.63558,1.00008
0.7,0.212429,1.0003,2.63365,1.63391,3.63345,1.00007
0.71,0.212744,1.00032,2.63153,1.63179,3.63132,1.00009
0.72,0.213198,1.00032,2.6294,1.62966,3.62921,1.0001
0.73,0.213857,1.00031,2.62726,1.62751,3.6271,1.00011
0.74,0.214608,1.00031,2.62512,1.62537,3.62497,1.00011
0.75,0.214852,1.00031,2.62297,1.62324,3.62282,1.0001
0.76,0.214986,1.00031,2.62083,1.62108,3.62065,1.00009
0.77,0.215121,1.0003,2.61868,1.61893,3.61848,1.00008
0.78,0.215355,1.00032,2.61652,1.61679,3.61633,1.00008
0.79,0.215736,1.00033,2.61437,1.61464,3.61418,1.0001
0.8,0.216353,1.00032,2.61221,1.61246,3.61204,1.00011
0.81,0.217069,1.00032,2.61004,1.6103,3.60989,1.00011
0.82,0.217414,1.00032,2.60787,1.60814,3.60772,1.00011
0.83,0.217546,1.00032,2.6057,1.60596,3.60552,1.0001
0.84,0.217665,1.00031,2.60352,1.60378,3.60332,1.00008
0.85,0.217849,1.00032,2.60135,1.60161,3.60114,1.00009
0.86,0.218129,1.00034,2.59917,1.59944,3.59895,1.0001
0.87,0.21863,1.00034,2.59698,1.59725,3.59679,1.00011
0.88,0.219295,1.00034,2.5948,1.59506,3.59462,1.00012
0.89,0.219676,1.00035,2.5926,1.59288,3.59242,1.00011
0.9,0.219773,1.00035,2.59041,1.59069,3.5902,1.00011
0.91,0.219843,1.00035,2.58821,1.58849,3.58798,1.00009
0.92,0.219942,1.00036,2.58601,1.5863,3.58578,1.00009
0.93,0.220169,1.00038,2.58381,1.58411,3.58357,1.00011
0.94,0.220604,1.00037,2.58161,1.5819,3.58138,1.00012
0.95,0.221209,1.00037,2.5794,1.57968,3.5792,1.00012
0.96,0.221607,1.00037,2.57719,1.57748,3.57699,1.00012
0.97,0.221623,1.00037,2.57497,1.57528,3.57476,1.00011
0.98,0.221652,1.00037,2.57275,1.57305,3.57252,1.0001
0.99,0.2217,1.00037,2.57054,1.57084,3.57029,1.0001
1,0.221885,1.00039,2.56832,1.56863,3.56808,1.00011
1.01,0.222266,1.00038,2.5661,1.5664,3.56587,1.00012
1.02,0.222829,1.00037,2.56388,1.56416,3.56367,1.00013
1.03,0.223235,1.00037,2.56165,1.56194,3.56145,1.00012
1.04,0.223224,1.00038,2.55942,1.55972,3.5592,1.00011
1.05,0.22319,1.00037,2.55718,1.55748,3.55695,1.0001
1.06,0.223195,1.00038,2.55495,1.55526,3.55471,1.0001
1.07,0.223335,1.0004,2.55272,1.55304,3.55247,1.00012
1.08,0.223705,1.0004,2.55049,1.5508,3.55025,1.00013
1.09,0.22423,1.00039,2.54825,1.54855,3.54804,1.00013
1.1,0.224587,1.00039,2.546,1.54632,3.5458,1.00013
1.11,0.224546,1.00039,2.54376,1.54408,3.54354,1.00012
1.12,0.2245,1.00039,2.54151,1.54182,3.54127,1.00011
1.13,0.224489,1.00039,2.53927,1.53958,3.53902,1.00011
1.14,0.224602,1.00041,2.53703,1.53735,3.53677,1.00012
1.15,0.224921,1.00041,2.53478,1.53509,3.53454,1.00013
1.16,0.225426,1.0004,2.53253,1.53284,3.53231,1.00013
1.17,0.225717,1.0004,2.53027,1.5306,3.53006,1.00013
1.18,0.225648,1.00041,2.52802,1.52835,3.52779,1.00012
1.19,0.225558,1.0004,2.52576,1.52609,3.52551,1.00011
1.2,0.225503,1.00041,2.52351,1.52384,3.52325,1.00011
1.21,0.225589,1.00043,2.52125,1.5216,3.52099,1.00013
1.22,0.225888,1.00043,2.519,1.51934,3.51874,1.00013
1.23,0.226355,1.00043,2.51674,1.51708,3.5165,1.00014
1.24,0.226413,1.00043,2.51447,1.51483,3.51424,1.00014
1.25,0.226303,1.00044,2.51221,1.51258,3.51196,1.00013
1.26,0.226203,1.00044,2.50995,1.51032,3.50967,1.00012
1.27,0.226141,1.00045,2.50769,1.50806,3.5074,1.00012
1.28,0.226179,1.00047,2.50543,1.50581,3.50514,1.00014
1.29,0.22644,1.00046,2.50316,1.50353,3.5029,1.00014
1.3,0.226872,1.00045,2.5009,1.50126,3.50066,1.00015
1.31,0.227033,1.00045,2.49863,1.49901,3.49839,1.00014
1.32,0.226868,1.00046,2.49636,1.49674,3.4961,1.00013
1.33,0.226703,1.00044,2.49409,1.49446,3.49382,1.00012
1.34,0.226625,1.00045,2.49183,1.4922,3.49156,1.00013
1.35,0.226712,1.00046,2.48956,1.48994,3.48929,1.00014
1.36,0.22706,1.00045,2.48729,1.48765,3.48705,1.00015
1.37,0.227522,1.00043,2.48502,1.48537,3.4848,1.00015
1.38,0.22759,1.00043,2.48275,1.48311,3.48253,1.00014
1.39,0.227463,1.00043,2.48047,1.48083,3.48023,1.00013
1.4,0.227349,1.00042,2.4782,1.47855,3.47794,1.00012
1.41,0.227333,1.00044,2.47593,1.47628,3.47565,1.00013
1.42,0.227429,1.00046,2.47365,1.47402,3.47338,1.00014
1.43,0.227773,1.00046,2.47138,1.47174,3.47112,1.00015
1.44,0.228241,1.00046,2.4691,1.46946,3.46885,1.00015
1.45,0.228246,1.00047,2.46682,1.4672,3.46656,1.00015
1.46,0.228132,1.00048,2.46454,1.46492,3.46425,1.00014
1.47,0.228006,1.00047,2.46226,1.46264,3.46195,1.00013
1.48,0.227992,1.0005,2.45998,1.46037,3.45967,1.00014
1.49,0.228123,1.00051,2.4577,1.45809,3.45739,1.00015
1.5,0.228485,1.00049,2.45542,1.4558,3.45513,1.00016
1.51,0.228901,1.00049,2.45313,1.45352,3.45286,1.00016
1.52,0.228812,1.0005,2.45084,1.45124,3.45056,1.00016
1.53,0.228656,1.00049,2.44855,1.44895,3.44825,1.00014
1.54,0.228517,1.00049,2.44627,1.44666,3.44596,1.00013
1.55,0.228497,1.0005,2.44398,1.44438,3.44367,1.00015
1.56,0.228643,1.0005,2.4417,1.44209,3.4414,1.00016
1.57,0.229003,1.00049,2.43941,1.43979,3.43913,1.00016
1.58,0.22936,1.00048,2.43712,1.4375,3.43685,1.00016
1.59,0.229213,1.00049,2.43483,1.43522,3.43455,1.00015
1.6,0.229014,1.00049,2.43254,1.43293,3.43224,1.00014
1.61,0.228855,1.00049,2.43025,1.43064,3.42994,1.00014
1.62,0.22883,1.00051,2.42796,1.42837,3.42765,1.00015
1.63,0.229018,1.00052,2.42567,1.42608,3.42537,1.00016
1.64,0.229387,1.00051,2.42338,1.42378,3.4231,1.00017
1.65,0.229627,1.00051,2.42109,1.42149,3.42081,1.00017
1.66,0.229437,1.00051,2.41879,1.4192,3.4185,1.00016
1.67,0.229245,1.0005,2.4165,1.4169,3.41619,1.00015
1.68,0.229102,1.00051,2.41421,1.41461,3.41389,1.00015
1.69,0.229084,1.00052,2.41192,1.41233,3.4116,1.00016
1.7,0.229276,1.00052,2.40963,1.41003,3.40932,1.00016
1.71,0.229659,1.00051,2.40734,1.40773,3.40705,1.00017
1.72,0.229765,1.00051,2.40504,1.40545,3.40476,1.00017
1.73,0.229567,1.00052,2.40274,1.40316,3.40244,1.00016
1.74,0.229355,1.00051,2.40045,1.40086,3.40013,1.00015
1.75,0.229225,1.00053,2.39816,1.39858,3.39783,1.00015
1.76,0.22921,1.00054,2.39587,1.3963,3.39554,1.00016
1.77,0.229435,1.00054,2.39357,1.394,3.39326,1.00017
1.78,0.229809,1.00053,2.39128,1.3917,3.39098,1.00017
1.79,0.229773,1.00054,2.38898,1.38943,3.38868,1.00017
1.8,0.229517,1.00055,2.38669,1.38713,3.38636,1.00016
1.81,0.229301,1.00054,2.38439,1.38484,3.38405,1.00015
1.82,0.229156,1.00056,2.3821,1.38255,3.38175,1.00016
1.83,0.229142,1.00057,2.37981,1.38026,3.37947,1.00017
1.84,0.229362,1.00055,2.37752,1.37796,3.3772,1.00017
1.85,0.229698,1.00054,2.37522,1.37566,3.37493,1.00018
1.86,0.229567,1.00055,2.37293,1.37338,3.37262,1.00017
1.87,0.229286,1.00055,2.37063,1.37108,3.37031,1.00016
1.88,0.229044,1.00054,2.36834,1.36878,3.36801,1.00015
1.89,0.228922,1.00056,2.36605,1.3665,3.36572,1.00016
1.9,0.229011,1.00056,2.36377,1.36421,3.36344,1.00017
1.91,0.229345,1.00055,2.36147,1.36191,3.36117,1.00018
1.92,0.22967,1.00054,2.35918,1.35962,3.35889,1.00018
1.93,0.22953,1.00055,2.35688,1.35733,3.35658,1.00018
1.94,0.229317,1.00054,2.35459,1.35502,3.35426,1.00016
1.95,0.229128,1.00054,2.3523,1.35273,3.35196,1.00015
1.96,0.229065,1.00056,2.35001,1.35045,3.34966,1.00017
1.97,0.229169,1.00056,2.34772,1.34816,3.34738,1.00017
1.98,0.229486,1.00055,2.34543,1.34586,3.34511,1.00018
1.99,0.229712,1.00056,2.34313,1.34358,3.34282,1.00018
2,0.229511,1.00057,2.34084,1.3413,3.34051,1.00018
2.01,0.229285,1.00057,2.33854,1.339,3.33819,1.00017
2.02,0.229081,1.00058,2.33625,1.33671,3.33589,1.00017
2.03,0.229023,1.00059,2.33396,1.33443,3.33359,1.00018
2.04,0.228972,1.00059,2.33167,1.33214,3.33132,1.00018
2.05,0.228947,1.00059,2.32938,1.32985,3.32905,1.00019
2.06,0.228964,1.0006,2.32709,1.32758,3.32676,1.00019
2.07,0.228631,1.00061,2.32481,1.3253,3.32445,1.00019
2.08,0.228343,1.0006,2.32252,1.32301,3.32215,1.00017
2.09,0.228131,1.00061,2.32024,1.32072,3.31986,1.00017
2.1,0.228063,1.00061,2.31796,1.31845,3.31758,1.00018
2.11,0.228216,1.0006,2.31568,1.31615,3.31533,1.00019
2.12,0.228548,1.00059,2.3134,1.31386,3.31307,1.00019
2.13,0.228573,1.00059,2.31111,1.31159,3.31078,1.00019
2.14,0.228301,1.0006,2.30883,1.30931,3.30848,1.00018
2.15,0.228032,1.00059,2.30655,1.30702,3.30618,1.00017
2.16,0.227868,1.0006,2.30427,1.30475,3.3039,1.00017
2.17,0.227824,1.00061,2.30199,1.30248,3.30162,1.00018
2.18,0.228038,1.00061,2.29971,1.30019,3.29936,1.00019
2.19,0.228375,1.0006,2.29743,1.29791,3.2971,1.0002
2.2,0.228301,1.00061,2.29515,1.29564,3.29481,1.0002
2.21,0.228041,1.00061,2.29287,1.29336,3.29251,1.00019
2.22,0.227789,1.0006,2.29059,1.29107,3.29022,1.00017
2.23,0.22764,1.00062,2.28831,1.2888,3.28793,1.00018
2.24,0.227614,1.00062,2.28604,1.28653,3.28566,1.00019
2.25,0.227831,1.00061,2.28376,1.28424,3.2834,1.00019
2.26,0.228136,1.00061,2.28148,1.28197,3.28114,1.0002
2.27,0.227995,1.00062,2.2792,1.2797,3.27886,1.0002
2.28,0.227714,1.00062,2.27693,1.27742,3.27656,1.00019
2.29,0.227441,1.00061,2.27465,1.27515,3.27427,1.00017
2.3,0.227287,1.00063,2.27238,1.27289,3.27199,1.00018
2.31,0.227284,1.00064,2.27011,1.27062,3.26972,1.00019
2.32,0.227479,1.00063,2.26783,1.26834,3.26747,1.0002
2.33,0.227711,1.00064,2.26556,1.26607,3.26521,1.0002
2.34,0.227487,1.00065,2.26328,1.26382,3.26292,1.0002
2.35,0.227176,1.00066,2.26101,1.26155,3.26062,1.00019
2.36,0.226887,1.00065,2.25874,1.25928,3.25834,1.00018
2.37,0.226712,1.00067,2.25647,1.25701,3.25607,1.00019
2.38,0.226691,1.00067,2.25421,1.25474,3.25381,1.0002
2.39,0.226876,1.00065,2.25194,1.25246,3.25157,1.00021
2.4,0.227068,1.00066,2.24967,1.2502,3.24931,1.00021
2.41,0.226819,1.00066,2.2474,1.24795,3.24703,1.00021
2.42,0.226484,1.00066,2.24514,1.24567,3.24475,1.00019
2.43,0.226184,1.00065,2.24287,1.24341,3.24248,1.00019
2.44,0.22605,1.00066,2.24061,1.24115,3.24022,1.0002
2.45,0.226118,1.00065,2.23835,1.23888,3.23798,1.0002
2.46,0.226411,1.00064,2.23609,1.23661,3.23574,1.00021
2.47,0.226591,1.00064,2.23383,1.23435,3.23348,1.00021
2.48,0.226375,1.00065,2.23156,1.23209,3.2312,1.0002
2.49,0.226109,1.00064,2.2293,1.22982,3.22892,1.00019
2.5,0.225879,1.00064,2.22704,1.22756,3.22665,1.00019
2.51,0.225782,1.00066,2.22478,1.22531,3.22438,1.0002
2.52,0.225857,1.00066,2.22253,1.22305,3.22214,1.0002
2.53,0.22612,1.00066,2.22027,1.22079,3.21989,1.00021
2.54,0.226244,1.00067,2.21801,1.21854,3.21764,1.00022
2.55,0.22602,1.00068,2.21574,1.2163,3.21535,1.00021
2.56,0.225744,1.00068,2.21349,1.21403,3.21307,1.0002
2.57,0.225502,1.00068,2.21123,1.21178,3.21081,1.0002
2.58,0.225413,1.0007,2.20898,1.20953,3.20855,1.00021
2.59,0.225511,1.00069,2.20672,1.20727,3.20631,1.00021
2.6,0.225783,1.00069,2.20447,1.20501,3.20407,1.00022
2.61,0.225875,1.00069,2.20221,1.20277,3.20182,1.00022
2.62,0.225577,1.0007,2.19995,1.20052,3.19955,1.00021
2.63,0.22529,1.00069,2.1977,1.19826,3.19728,1.0002
2.64,0.225048,1.00069,2.19545,1.196,3.19502,1.0002
2.65,0.224954,1.0007,2.1932,1.19376,3.19277,1.00021
2.66,0.225055,1.00069,2.19095,1.1915,3.19054,1.00021
2.67,0.22532,1.00068,2.1887,1.18924,3.18831,1.00022
2.68,0.225398,1.00069,2.18645,1.187,3.18606,1.00022
2.69,0.225086,1.0007,2.1842,1.18476,3.18379,1.00021
2.7,0.224769,1.00069,2.18195,1.1825,3.18152,1.0002
2.71,0.224522,1.0007,2.1797,1.18026,3.17927,1.0002
2.72,0.224407,1.00071,2.17746,1.17802,3.17703,1.00021
2.73,0.224524,1.00071,2.17521,1.17578,3.1748,1.00022
2.74,0.224787,1.0007,2.17297,1.17352,3.17257,1.00023
2.75,0.224801,1.00071,2.17072,1.17129,3.17033,1.00023
2.76,0.224505,1.00071,2.16847,1.16905,3.16806,1.00022
2.77,0.224198,1.0007,2.16623,1.16679,3.1658,1.00021
2.78,0.223962,1.00071,2.16399,1.16455,3.16356,1.00021
2.79,0.223846,1.00071,2.16175,1.16232,3.16132,1.00021
2.8,0.22393,1.00071,2.15952,1.16008,3.1591,1.00022
2.81,0.224123,1.00071,2.15728,1.15783,3.15688,1.00023
2.82,0.224325,1.00072,2.15503,1.15561,3.15464,1.00023
2.83,0.224182,1.00073,2.15279,1.15338,3.15237,1.00022
2.84,0.224001,1.00072,2.15055,1.15113,3.15012,1.00021
2.85,0.223864,1.00073,2.14831,1.1489,3.14787,1.00021
2.86,0.223842,1.00074,2.14608,1.14667,3.14563,1.00022
2.87,0.22401,1.00074,2.14384,1.14443,3.1434,1.00022
2.88,0.224323,1.00074,2.1416,1.14219,3.14118,1.00024
2.89,0.224315,1.00075,2.13935,1.13997,3.13894,1.00024
2.9,0.224013,1.00076,2.13711,1.13774,3.13667,1.00023
2.91,0.223721,1.00075,2.13488,1.13549,3.13442,1.00022
2.92,0.223466,1.00076,2.13264,1.13326,3.13218,1.00022
2.93,0.223332,1.00076,2.13041,1.13102,3.12995,1.00022
2.94,0.223405,1.00075,2.12817,1.12878,3.12774,1.00023
2.95,0.223644,1.00074,2.12594,1.12654,3.12553,1.00024
2.96,0.223605,1.00075,2.1237,1.12432,3.12329,1.00024
2.97,0.223257,1.00075,2.12147,1.12209,3.12104,1.00023
2.98,0.222907,1.00074,2.11924,1.11985,3.1188,1.00022
2.99,0.222643,1.00075,2.11701,1.11762,3.11657,1.00022
3,0.222534,1.00075,2.11479,1.1154,3.11434,1.00022
3.01,0.222665,1.00075,2.11256,1.11317,3.11214,1.00023
3.02,0.222932,1.00074,2.11034,1.11093,3.10993,1.00024
3.03,0.222926,1.00075,2.10811,1.10872,3.1077,1.00024
3.04,0.22263,1.00076,2.10588,1.10649,3.10545,1.00023
3.05,0.222324,1.00075,2.10366,1.10426,3.10321,1.00022
3.06,0.2221,1.00075,2.10144,1.10204,3.10098,1.00022
3.07,0.221982,1.00076,2.09922,1.09983,3.09876,1.00022
3.08,0.22207,1.00076,2.097,1.0976,3.09655,1.00023
3.09,0.222315,1.00076,2.09478,1.09538,3.09435,1.00024
3.1,0.22229,1.00077,2.09255,1.09318,3.09213,1.00025
3.11,0.221999,1.00078,2.09033,1.09097,3.08988,1.00024
3.12,0.221681,1.00078,2.08811,1.08874,3.08765,1.00023
3.13,0.221423,1.00078,2.0859,1.08653,3.08542,1.00023
3.14,0.221304,1.00079,2.08369,1.08432,3.08321,1.00023
3.15,0.221383,1.00079,2.08147,1.0821,3.08101,1.00024
3.16,0.221622,1.00079,2.07926,1.07989,3.07882,1.00025
3.17,0.221617,1.0008,2.07704,1.07769,3.0766,1.00025
3.18,0.221282,1.0008,2.07483,1.07548,3.07437,1.00025
3.19,0.220959,1.0008,2.07262,1.07326,3.07214,1.00023
3.2,0.22069,1.00079,2.07041,1.07105,3.06993,1.00023
3.21,0.220569,1.0008,2.06821,1.06885,3.06772,1.00024
3.22,0.220627,1.00079,2.066,1.06663,3.06554,1.00024
3.23,0.220852,1.00079,2.0638,1.06442,3.06335,1.00025
3.24,0.220894,1.00079,2.06159,1.06222,3.06115,1.00026
3.25,0.220588,1.0008,2.05938,1.06003,3.05892,1.00025
3.26,0.220234,1.0008,2.05718,1.05782,3.0567,1.00024
3.27,0.219938,1.00079,2.05498,1.05562,3.05449,1.00023
3.28,0.219788,1.00081,2.05278,1.05343,3.05229,1.00024
3.29,0.219831,1.00081,2.05058,1.05123,3.05011,1.00025
3.3,0.220044,1.00081,2.04838,1.04903,3.04793,1.00026
3.31,0.220097,1.00081,2.04618,1.04684,3.04574,1.00026
3.32,0.219827,1.00082,2.04399,1.04465,3.04352,1.00026
3.33,0.219493,1.00081,2.04179,1.04244,3.0413,1.00024
3.34,0.219192,1.0008,2.0396,1.04024,3.0391,1.00023
3.35,0.219032,1.00081,2.03741,1.03806,3.03691,1.00024
3.36,0.219024,1.00081,2.03522,1.03587,3.03473,1.00025
3.37,0.21921,1.00081,2.03303,1.03367,3.03257,1.00026
3.38,0.219282,1.00082,2.03083,1.03149,3.03038,1.00026
3.39,0.219041,1.00083,2.02864,1.02931,3.02818,1.00026
3.4,0.218692,1.00082,2.02646,1.02712,3.02597,1.00025
3.41,0.218339,1.00082,2.02427,1.02494,3.02378,1.00024
3.42,0.217438,1.00083,2.02209,1.02277,3.02159,1.00024
3.43,0.217128,1.00083,2.01992,1.0206,3.01943,1.00025
3.44,0.217103,1.00083,2.01775,1.01842,3.01728,1.00026
3.45,0.217092,1.00084,2.01558,1.01626,3.01512,1.00027
3.46,0.216749,1.00085,2.01341,1.01412,3.01294,1.00026
3.47,0.216305,1.00085,2.01125,1.01195,3.01075,1.00025
3.48,0.215903,1.00084,2.00909,1.00979,3.00858,1.00024
3.49,0.215634,1.00085,2.00693,1.00763,3.00642,1.00024
3.5,0.215465,1.00085,2.00477,1.00547,3.00428,1.00025
3.51,0.215513,1.00084,2.00262,1.00331,3.00215,1.00026
3.52,0.215657,1.00084,2.00047,1.00115,3.00001,1.00027
3.53,0.215508,1.00086,1.99831,0.999017,2.99784,1.00027
3.54,0.215146,1.00086,1.99616,0.996869,2.99566,1.00026
3.55,0.214779,1.00085,1.99401,0.994709,2.99351,1.00025
3.56,0.214519,1.00085,1.99186,0.992563,2.99136,1.00025
3.57,0.2144,1.00085,1.98972,0.990419,2.98923,1.00025
3.58,0.214513,1.00084,1.98758,0.988262,2.9871,1.00026
3.59,0.214747,1.00084,1.98543,0.986107,2.98498,1.00027
3.6,0.214728,1.00084,1.98328,0.983968,2.98283,1.00027
3.61,0.214443,1.00084,1.98114,0.981826,2.98066,1.00026
3.62,0.214139,1.00083,1.979,0.979672,2.97851,1.00025
3.63,0.213853,1.00082,1.97686,0.977532,2.97636,1.00024
3.64,0.213708,1.00084,1.97472,0.9754,2.97422,1.00025
3.65,0.213721,1.00084,1.97258,0.97326,2.9721,1.00025
3.66,0.213905,1.00084,1.97045,0.97112,2.96998,1.00027
3.67,0.213956,1.00086,1.96831,0.968998,2.96784,1.00028
3.68,0.213735,1.00087,1.96617,0.966879,2.96568,1.00027
3.69,0.213419,1.00087,1.96404,0.964742,2.96352,1.00026
3.7,0.2131,1.00087,1.9619,0.962608,2.96138,1.00025
3.71,0.212927,1.00088,1.95977,0.960485,2.95924,1.00026
3.72,0.212877,1.00089,1.95765,0.958358,2.95712,1.00027
3.73,0.213016,1.00088,1.95552,0.956221,2.95501,1.00028
3.74,0.213171,1.00089,1.95339,0.954098,2.95289,1.00028
