time,velocity,ratio,centerX,Xmax,Xmin,Ymax
0,0,1,3.5,2.5,4.5,1
0.01,0.0182665,1,3.49991,2.49991,4.49991,1
0.02,0.0341481,1.00001,3.49965,2.49966,4.49964,1
0.03,0.0480742,1.00002,3.49924,2.49925,4.49922,1
0.04,0.0603687,1.00003,3.49871,2.49872,4.49866,1
0.05,0.0713432,1.00004,3.49805,2.49807,4.49799,1.00001
0.06,0.0811642,1.00005,3.49729,2.49731,4.49722,1.00001
0.07,0.0899873,1.00006,3.49644,2.49647,4.49636,1.00001
0.08,0.0979615,1.00007,3.4955,2.49555,4.49542,1.00001
0.09,0.105191,1.00008,3.49449,2.49455,4.49441,1.00001
0.1,0.11177,1.00008,3.4934,2.49348,4.49334,1.00001
0.11,0.117783,1.00008,3.49226,2.49236,4.49221,1
0.12,0.123313,1.00008,3.49106,2.49117,4.49102,1.00001
0.13,0.128397,1.0001,3.4898,2.48994,4.4898,1.00003
0.14,0.133099,1.00011,3.48849,2.48865,4.48853,1.00004
0.15,0.137459,1.00011,3.48714,2.48733,4.48722,1.00006
0.16,0.141505,1.00011,3.48575,2.48596,4.48588,1.00007
0.17,0.145258,1.0001,3.48432,2.48455,4.4845,1.00008
0.18,0.148769,1.00009,3.48285,2.48311,4.48309,1.00008
0.19,0.152058,1.00008,3.48135,2.48163,4.48163,1.00008
0.2,0.15514,1.00008,3.47981,2.48012,4.48013,1.00009
0.21,0.158033,1.00009,3.47825,2.47858,4.47859,1.00009
0.22,0.160754,1.0001,3.47666,2.47701,4.47701,1.00009
0.23,0.163326,1.00013,3.47504,2.47542,4.47539,1.00012
0.24,0.165763,1.00017,3.47339,2.47381,4.47375,1.00014
0.25,0.168085,1.00021,3.47173,2.47218,4.47207,1.00016
0.26,0.170286,1.00025,3.47004,2.47053,4.47038,1.00017
0.27,0.172354,1.00029,3.46833,2.46886,4.46867,1.00019
0.28,0.174354,1.00033,3.46659,2.46717,4.46693,1.00021
0.29,0.176272,1.00037,3.46484,2.46546,4.46515,1.00022
0.3,0.178099,1.00042,3.46307,2.46373,4.46335,1.00023
0.31,0.179827,1.00047,3.46128,2.46198,4.46151,1.00023
0.32,0.181488,1.00053,3.45948,2.46022,4.45966,1.00025
0.33,0.183089,1.00061,3.45766,2.45844,4.45778,1.00028
0.34,0.184633,1.00069,3.45582,2.45665,4.45589,1.00031
0.35,0.186119,1.00076,3.45397,2.45485,4.45399,1.00033
0.36,0.187541,1.00083,3.4521,2.45304,4.45209,1.00035
0.37,0.188909,1.00089,3.45022,2.45121,4.45015,1.00036
0.38,0.19024,1.00096,3.44833,2.44935,4.44819,1.00038
0.39,0.191488,1.00102,3.44642,2.44748,4.44622,1.00039
0.4,0.192682,1.00109,3.4445,2.4456,4.44422,1.0004
0.41,0.193844,1.00118,3.44257,2.4437,4.44221,1.00043
0.42,0.194972,1.00126,3.44062,2.44179,4.4402,1.00046
0.43,0.196058,1.00133,3.43867,2.43988,4.43818,1.00049
0.44,0.197119,1.00141,3.43671,2.43795,4.43615,1.00051
0.45,0.198141,1.0015,3.43473,2.43602,4.43409,1.00053
0.46,0.199124,1.00159,3.43275,2.43409,4.43201,1.00055
0.47,0.200077,1.00167,3.43075,2.43214,4.42992,1.00056
0.48,0.201,1.00175,3.42875,2.43019,4.42783,1.00057
0.49,0.201904,1.00186,3.42673,2.42823,4.42575,1.00061
0.5,0.202803,1.00195,3.42471,2.42626,4.42367,1.00065
0.51,0.203675,1.00203,3.42268,2.42429,4.4216,1.00068
0.52,0.204514,1.00211,3.42064,2.42232,4.41952,1.00071
0.53,0.205327,1.00219,3.41859,2.42033,4.41742,1.00073
0.54,0.206106,1.00227,3.41654,2.41833,4.4153,1.00075
0.55,0.206858,1.00235,3.41447,2.41632,4.41317,1.00077
0.56,0.207579,1.00244,3.4124,2.41431,4.41103,1.0008
0.57,0.208306,1.00255,3.41032,2.4123,4.40888,1.00084
0.58,0.209027,1.00265,3.40824,2.41028,4.40674,1.00087
0.59,0.20969,1.00274,3.40614,2.40826,4.4046,1.00091
0.6,0.210339,1.00284,3.40404,2.40624,4.40244,1.00094
0.61,0.210997,1.00294,3.40194,2.40421,4.40026,1.00096
0.62,0.211622,1.00304,3.39983,2.40217,4.39807,1.00098
0.63,0.212211,1.00313,3.39771,2.40013,4.39588,1.001
0.64,0.212812,1.00325,3.39558,2.39808,4.39368,1.00104
0.65,0.213413,1.00337,3.39345,2.39604,4.39148,1.00108
0.66,0.214001,1.00347,3.39132,2.394,4.3893,1.00112
0.67,0.214566,1.00358,3.38918,2.39195,4.38709,1.00115
0.68,0.215109,1.0037,3.38703,2.3899,4.38487,1.00117
0.69,0.215624,1.0038,3.38488,2.38784,4.38264,1.0012
0.7,0.216104,1.0039,3.38272,2.38576,4.3804,1.00121
0.71,0.216577,1.00401,3.38056,2.38367,4.37817,1.00125
0.72,0.21705,1.00411,3.37839,2.38157,4.37594,1.00129
0.73,0.217524,1.00421,3.37622,2.37945,4.37371,1.00133
0.74,0.217993,1.00432,3.37404,2.37733,4.37143,1.00136
0.75,0.21845,1.00442,3.37186,2.3752,4.36916,1.00139
0.76,0.218893,1.00452,3.36967,2.3731,4.3669,1.00141
0.77,0.219322,1.00461,3.36748,2.37099,4.36465,1.00143
0.78,0.219746,1.00471,3.36529,2.36887,4.36241,1.00146
0.79,0.220186,1.00481,3.36309,2.36675,4.36019,1.00151
0.8,0.220646,1.00489,3.36089,2.36463,4.35799,1.00155
0.81,0.221121,1.00497,3.35868,2.3625,4.35577,1.00159
0.82,0.221581,1.00505,3.35647,2.36036,4.35353,1.00162
0.83,0.222025,1.00513,3.35425,2.35822,4.35127,1.00164
0.84,0.222439,1.00521,3.35203,2.35606,4.349,1.00166
0.85,0.222838,1.0053,3.3498,2.3539,4.34672,1.0017
0.86,0.223258,1.00541,3.34757,2.35173,4.34444,1.00174
0.87,0.223653,1.0055,3.34534,2.34957,4.34217,1.00178
0.88,0.22403,1.0056,3.3431,2.3474,4.33988,1.00182
0.89,0.224409,1.0057,3.34086,2.34523,4.33757,1.00185
0.9,0.224791,1.00581,3.33861,2.34307,4.33524,1.00187
0.91,0.225163,1.00591,3.33637,2.34089,4.33291,1.0019
0.92,0.225529,1.00602,3.33411,2.3387,4.33057,1.00193
0.93,0.22591,1.00614,3.33186,2.33652,4.32825,1.00198
0.94,0.226296,1.00625,3.3296,2.33433,4.32592,1.00202
0.95,0.226672,1.00636,3.32733,2.33214,4.32358,1.00205
0.96,0.227008,1.00647,3.32506,2.32995,4.32122,1.00208
0.97,0.227324,1.00659,3.32279,2.32776,4.31885,1.0021
0.98,0.227647,1.00669,3.32052,2.32555,4.31648,1.00212
0.99,0.227979,1.00681,3.31824,2.32334,4.31411,1.00216
1,0.228309,1.00692,3.31596,2.32111,4.31175,1.00221
1.01,0.228617,1.00704,3.31368,2.31888,4.30937,1.00225
1.02,0.228944,1.00715,3.31139,2.31665,4.30697,1.00228
1.03,0.229261,1.00727,3.3091,2.31441,4.30457,1.00231
1.04,0.229564,1.00737,3.30681,2.31217,4.30218,1.00234
1.05,0.229856,1.00747,3.30451,2.30995,4.29979,1.00236
1.06,0.23013,1.00759,3.30221,2.30772,4.29743,1.0024
1.07,0.230381,1.0077,3.29991,2.30549,4.29508,1.00245
1.08,0.230646,1.00781,3.29761,2.30326,4.29271,1.00249
1.09,0.230943,1.00792,3.2953,2.30102,4.29033,1.00253
1.1,0.23123,1.00803,3.29299,2.29879,4.28794,1.00256
1.11,0.231485,1.00814,3.29068,2.29656,4.28555,1.00259
1.12,0.23173,1.00825,3.28836,2.29433,4.28315,1.00262
1.13,0.231969,1.00837,3.28605,2.29208,4.28077,1.00267
1.14,0.232191,1.00849,3.28373,2.28984,4.27839,1.00272
1.15,0.232408,1.00861,3.2814,2.2876,4.27599,1.00276
1.16,0.232622,1.00874,3.27908,2.28536,4.27358,1.0028
1.17,0.232838,1.00886,3.27675,2.28313,4.27117,1.00283
1.18,0.23305,1.00898,3.27442,2.2809,4.26875,1.00286
1.19,0.233265,1.00911,3.27209,2.27866,4.26634,1.00289
1.2,0.233478,1.00924,3.26976,2.27642,4.26395,1.00294
1.21,0.233707,1.00937,3.26743,2.27419,4.26154,1.00299
1.22,0.23393,1.00951,3.26509,2.27196,4.25912,1.00303
1.23,0.234094,1.00965,3.26275,2.26973,4.25669,1.00307
1.24,0.234221,1.00979,3.26041,2.26752,4.25426,1.0031
1.25,0.234367,1.00992,3.25807,2.2653,4.25184,1.00312
1.26,0.234527,1.01006,3.25572,2.26308,4.24943,1.00317
1.27,0.234687,1.01021,3.25338,2.26085,4.247,1.00322
1.28,0.234821,1.01036,3.25103,2.2586,4.24455,1.00326
1.29,0.234954,1.01049,3.24868,2.25634,4.24211,1.0033
1.3,0.235087,1.0106,3.24633,2.25408,4.23969,1.00333
1.31,0.235224,1.01069,3.24398,2.2518,4.23731,1.00336
1.32,0.235357,1.01076,3.24163,2.24953,4.23494,1.00339
1.33,0.235514,1.01087,3.23928,2.24729,4.2326,1.00345
1.34,0.235655,1.01098,3.23692,2.24504,4.23023,1.00349
1.35,0.235837,1.01109,3.23456,2.24278,4.22785,1.00354
1.36,0.23606,1.01119,3.23221,2.24052,4.22545,1.00358
1.37,0.236275,1.0113,3.22985,2.23825,4.22304,1.00361
1.38,0.236471,1.0114,3.22748,2.23598,4.22063,1.00364
1.39,0.236663,1.01151,3.22512,2.23371,4.21822,1.00368
1.4,0.236841,1.01163,3.22275,2.23142,4.21581,1.00373
1.41,0.237023,1.01175,3.22038,2.22912,4.21337,1.00378
1.42,0.237203,1.01187,3.21801,2.22683,4.21092,1.00382
1.43,0.237375,1.01199,3.21564,2.22453,4.20845,1.00385
1.44,0.237519,1.01211,3.21327,2.22224,4.20599,1.00388
1.45,0.23767,1.01222,3.21089,2.21995,4.20353,1.00391
1.46,0.237848,1.01236,3.20851,2.21766,4.20108,1.00396
1.47,0.238048,1.01249,3.20614,2.21536,4.19861,1.00401
1.48,0.238237,1.01263,3.20376,2.21305,4.19612,1.00406
1.49,0.238413,1.01276,3.20137,2.21075,4.19363,1.0041
1.5,0.23856,1.0129,3.19899,2.20845,4.19114,1.00413
1.51,0.238703,1.01302,3.1966,2.20614,4.18865,1.00416
1.52,0.238873,1.01315,3.19422,2.20384,4.18617,1.00419
1.53,0.239042,1.0133,3.19183,2.20154,4.18367,1.00425
1.54,0.239213,1.01345,3.18944,2.19922,4.18115,1.00429
1.55,0.239377,1.01359,3.18705,2.1969,4.17864,1.00434
1.56,0.239534,1.01371,3.18465,2.19456,4.17614,1.00437
1.57,0.239678,1.01382,3.18226,2.19223,4.17365,1.0044
1.58,0.239815,1.01391,3.17986,2.18989,4.17119,1.00443
1.59,0.239936,1.01403,3.17746,2.18756,4.16872,1.00448
1.6,0.240042,1.01417,3.17506,2.18524,4.16624,1.00453
1.61,0.240143,1.0143,3.17266,2.18291,4.16375,1.00458
1.62,0.24026,1.01442,3.17026,2.18058,4.16126,1.00462
1.63,0.240373,1.01454,3.16786,2.17826,4.15876,1.00465
1.64,0.240495,1.01465,3.16546,2.17593,4.15628,1.00468
1.65,0.240581,1.01477,3.16305,2.17361,4.15381,1.00472
1.66,0.240655,1.01492,3.16065,2.1713,4.15132,1.00478
1.67,0.24075,1.01506,3.15824,2.16897,4.14882,1.00483
1.68,0.240862,1.01519,3.15583,2.16664,4.14631,1.00487
1.69,0.240968,1.01532,3.15342,2.16431,4.14381,1.00491
1.7,0.241036,1.01543,3.15101,2.16199,4.14132,1.00494
1.71,0.241131,1.01554,3.1486,2.15967,4.13884,1.00496
1.72,0.241229,1.01569,3.14619,2.15735,4.13635,1.00502
1.73,0.241343,1.01584,3.14378,2.15504,4.13384,1.00507
1.74,0.241426,1.01598,3.14137,2.15272,4.13134,1.00512
1.75,0.241447,1.01611,3.13895,2.1504,4.12883,1.00516
1.76,0.241481,1.01624,3.13654,2.14808,4.12634,1.00519
1.77,0.241515,1.01636,3.13413,2.14577,4.12385,1.00522
1.78,0.241564,1.01651,3.13171,2.14347,4.12133,1.00526
1.79,0.241622,1.01667,3.1293,2.14117,4.11881,1.00531
1.8,0.241678,1.01683,3.12688,2.13886,4.11631,1.00536
1.81,0.24174,1.01695,3.12446,2.13655,4.11382,1.0054
1.82,0.241797,1.01706,3.12205,2.13421,4.11135,1.00543
1.83,0.241847,1.01714,3.11963,2.13187,4.10891,1.00546
1.84,0.241904,1.01721,3.11721,2.12953,4.10647,1.00549
1.85,0.241946,1.01732,3.11479,2.12717,4.10402,1.00554
1.86,0.241997,1.01743,3.11238,2.12481,4.10155,1.0056
1.87,0.242055,1.01756,3.10996,2.12249,4.09907,1.00564
1.88,0.242094,1.01768,3.10754,2.12016,4.09658,1.00568
1.89,0.241902,1.01779,3.10512,2.11783,4.0941,1.00571
1.9,0.242043,1.01789,3.1027,2.1155,4.09163,1.00574
1.91,0.24212,1.01802,3.10028,2.11317,4.08914,1.00578
1.92,0.24217,1.01816,3.09786,2.11084,4.08664,1.00584
1.93,0.242239,1.0183,3.09543,2.10851,4.08413,1.00589
1.94,0.242326,1.01843,3.09301,2.10616,4.08161,1.00593
1.95,0.242385,1.01855,3.09059,2.10382,4.07911,1.00596
1.96,0.242418,1.01865,3.08817,2.10147,4.07661,1.00599
1.97,0.242467,1.01877,3.08574,2.09912,4.0741,1.00602
1.98,0.24253,1.01891,3.08332,2.09678,4.07158,1.00608
1.99,0.242578,1.01906,3.08089,2.09444,4.06905,1.00613
2,0.242645,1.0192,3.07847,2.0921,4.06652,1.00617
2.01,0.24271,1.01933,3.07604,2.08975,4.064,1.00621
2.02,0.242789,1.01944,3.07362,2.0874,4.06149,1.00624
2.03,0.242864,1.01957,3.07119,2.08505,4.05895,1.00626
2.04,0.242939,1.01971,3.06876,2.0827,4.05641,1.00631
2.05,0.243032,1.01987,3.06633,2.08036,4.05387,1.00636
2.06,0.243117,1.02001,3.0639,2.07801,4.05133,1.00641
2.07,0.243202,1.02014,3.06147,2.07566,4.04882,1.00644
2.08,0.243274,1.02024,3.05904,2.07329,4.04632,1.00648
2.09,0.243341,1.02033,3.05661,2.07092,4.04383,1.00651
2.1,0.24339,1.02043,3.05417,2.06854,4.04132,1.00654
2.11,0.243436,1.02055,3.05174,2.06616,4.03881,1.00659
2.12,0.243484,1.02067,3.04931,2.06379,4.03629,1.00664
2.13,0.243518,1.02079,3.04687,2.06142,4.03377,1.00668
2.14,0.243539,1.02091,3.04444,2.05906,4.03126,1.00672
2.15,0.24354,1.02101,3.042,2.05669,4.02876,1.00675
2.16,0.243541,1.02111,3.03957,2.05433,4.02625,1.00677
2.17,0.243556,1.02124,3.03713,2.05197,4.02373,1.00683
2.18,0.243569,1.02138,3.0347,2.04961,4.02121,1.00688
2.19,0.243605,1.02151,3.03226,2.04725,4.01869,1.00692
2.2,0.243661,1.02163,3.02983,2.0449,4.01617,1.00696
2.21,0.243679,1.02174,3.02739,2.04254,4.01368,1.00699
2.22,0.243692,1.02184,3.02496,2.04017,4.01116,1.00702
2.23,0.243718,1.02196,3.02252,2.03782,4.00864,1.00706
2.24,0.243743,1.02211,3.02008,2.03547,4.00612,1.00711
2.25,0.243739,1.02225,3.01765,2.03312,4.0036,1.00716
2.26,0.243731,1.02238,3.01521,2.03079,4.00109,1.0072
2.27,0.243791,1.02249,3.01277,2.02844,3.99859,1.00723
2.28,0.243744,1.02262,3.01034,2.0261,3.99605,1.00726
2.29,0.243704,1.02275,3.0079,2.02376,3.99351,1.00728
2.3,0.243656,1.0229,3.00546,2.02144,3.991,1.00733
2.31,0.243625,1.02303,3.00303,2.01912,3.98852,1.00738
2.32,0.243105,1.02316,3.0006,2.01681,3.98606,1.00742
2.33,0.243442,1.02326,2.99817,2.01451,3.98363,1.00746
2.34,0.243727,1.02335,2.99573,2.0122,3.98119,1.00749
2.35,0.243927,1.02344,2.99329,2.00986,3.97874,1.00752
2.36,0.244086,1.02356,2.99085,2.00752,3.97627,1.00756
2.37,0.244223,1.02368,2.98841,2.00517,3.97378,1.00762
2.38,0.244325,1.0238,2.98597,2.0028,3.97128,1.00766
2.39,0.244424,1.0239,2.98353,2.00043,3.96879,1.0077
2.4,0.244407,1.02402,2.98108,1.99809,3.9663,1.00774
2.41,0.244509,1.02414,2.97864,1.99576,3.9638,1.00777
2.42,0.244583,1.02428,2.9762,1.99343,3.96127,1.00781
2.43,0.244669,1.02444,2.97375,1.99109,3.95873,1.00787
2.44,0.244759,1.02459,2.9713,1.98874,3.95619,1.00792
2.45,0.244852,1.02473,2.96886,1.98639,3.95366,1.00796
2.46,0.244922,1.02486,2.96641,1.98403,3.95114,1.008
2.47,0.244966,1.02498,2.96396,1.98167,3.9486,1.00803
2.48,0.245002,1.0251,2.96151,1.97929,3.94605,1.00806
2.49,0.24501,1.02526,2.95906,1.97692,3.94349,1.00812
2.5,0.245029,1.02541,2.95661,1.97455,3.94093,1.00817
2.51,0.245039,1.02555,2.95416,1.97218,3.93838,1.00822
2.52,0.245049,1.02568,2.95171,1.96981,3.93583,1.00826
2.53,0.245095,1.02583,2.94926,1.96745,3.93326,1.00829
2.54,0.245144,1.02596,2.94681,1.96507,3.93069,1.00832
2.55,0.245193,1.0261,2.94436,1.96269,3.92812,1.00836
2.56,0.245234,1.02625,2.94191,1.96032,3.92556,1.00842
2.57,0.245277,1.02639,2.93946,1.95794,3.92302,1.00847
2.58,0.245315,1.02651,2.93701,1.95557,3.9205,1.00851
2.59,0.245345,1.02663,2.93455,1.9532,3.91797,1.00854
2.6,0.245363,1.02674,2.9321,1.95082,3.91544,1.00857
2.61,0.245377,1.02685,2.92965,1.94843,3.91289,1.0086
2.62,0.245383,1.02699,2.92719,1.94603,3.91034,1.00866
2.63,0.24538,1.02711,2.92474,1.94363,3.9078,1.00871
2.64,0.245366,1.02722,2.92229,1.94123,3.90528,1.00876
2.65,0.245326,1.02733,2.91984,1.93883,3.90275,1.00879
2.66,0.245284,1.02743,2.91738,1.93644,3.90021,1.00882
2.67,0.245226,1.02754,2.91493,1.93405,3.89767,1.00885
2.68,0.245176,1.02768,2.91248,1.93167,3.89512,1.0089
2.69,0.245144,1.02782,2.91003,1.92928,3.89258,1.00895
2.7,0.245129,1.02794,2.90758,1.9269,3.89005,1.009
2.71,0.245129,1.02805,2.90513,1.92452,3.88753,1.00904
2.72,0.245122,1.02817,2.90268,1.92214,3.885,1.00907
2.73,0.245112,1.02828,2.90023,1.91977,3.88246,1.0091
2.74,0.24507,1.0284,2.89778,1.91738,3.87991,1.00914
2.75,0.245008,1.02854,2.89533,1.915,3.87738,1.00919
2.76,0.244974,1.02866,2.89288,1.91263,3.87486,1.00924
2.77,0.244952,1.02879,2.89043,1.91026,3.87233,1.00928
2.78,0.244928,1.02892,2.88798,1.90789,3.86977,1.00931
2.79,0.244904,1.02904,2.88553,1.90553,3.86723,1.00934
2.8,0.244851,1.02915,2.88308,1.90317,3.86471,1.00936
2.81,0.244834,1.02928,2.88064,1.9008,3.8622,1.00941
2.82,0.244806,1.02939,2.87819,1.89844,3.85972,1.00946
2.83,0.244782,1.02949,2.87574,1.89608,3.85726,1.0095
2.84,0.244762,1.02959,2.87329,1.89374,3.85478,1.00954
2.85,0.244725,1.0297,2.87085,1.89139,3.85229,1.00957
2.86,0.244694,1.02981,2.8684,1.88905,3.84979,1.00959
2.87,0.244663,1.02993,2.86596,1.8867,3.84728,1.00963
2.88,0.244623,1.03005,2.86351,1.88432,3.84478,1.00968
2.89,0.244565,1.03016,2.86107,1.88195,3.84228,1.00973
2.9,0.244511,1.03026,2.85862,1.87956,3.83978,1.00977
2.91,0.244464,1.03036,2.85618,1.87717,3.83726,1.0098
2.92,0.244406,1.03045,2.85373,1.87478,3.83473,1.00982
2.93,0.244326,1.03058,2.85129,1.87242,3.8322,1.00985
2.94,0.244299,1.03072,2.84885,1.87006,3.82967,1.00991
2.95,0.244275,1.03085,2.84641,1.8677,3.82716,1.00996
2.96,0.244287,1.03098,2.84396,1.86534,3.82464,1.01
2.97,0.244275,1.0311,2.84152,1.86298,3.82211,1.01003
2.98,0.244264,1.03123,2.83908,1.86061,3.81957,1.01006
2.99,0.244236,1.03134,2.83664,1.85825,3.81703,1.01009
3,0.244192,1.03148,2.8342,1.85587,3.81449,1.01014
3.01,0.244158,1.03161,2.83176,1.85349,3.81197,1.01019
3.02,0.244146,1.03173,2.82931,1.85112,3.80943,1.01023
3.03,0.24413,1.03187,2.82687,1.84874,3.80687,1.01027
3.04,0.244114,1.032,2.82443,1.84638,3.80432,1.0103
3.05,0.244112,1.03212,2.82199,1.84401,3.80178,1.01032
3.06,0.244121,1.03224,2.81955,1.84164,3.79925,1.01036
3.07,0.244135,1.03236,2.81711,1.83927,3.79674,1.01041
3.08,0.244138,1.03248,2.81467,1.83689,3.79424,1.01046
3.09,0.244145,1.03259,2.81223,1.83452,3.79173,1.0105
3.1,0.244144,1.0327,2.80979,1.83215,3.78921,1.01053
3.11,0.244137,1.03281,2.80735,1.82978,3.78668,1.01056
3.12,0.244126,1.03292,2.80491,1.82742,3.78416,1.01058
3.13,0.24411,1.03305,2.80247,1.82504,3.78164,1.01063
3.14,0.244085,1.03316,2.80003,1.82265,3.77914,1.01068
3.15,0.244033,1.03326,2.79759,1.82025,3.77663,1.01072
3.16,0.243978,1.03336,2.79515,1.81786,3.77411,1.01076
3.17,0.243921,1.03346,2.79271,1.81546,3.77158,1.01079
3.18,0.243843,1.03355,2.79027,1.81307,3.76905,1.01081
3.19,0.243767,1.03367,2.78784,1.81069,3.76654,1.01085
3.2,0.243707,1.03378,2.7854,1.80831,3.76404,1.0109
3.21,0.243646,1.0339,2.78296,1.80593,3.76153,1.01094
3.22,0.24361,1.03401,2.78053,1.80356,3.75902,1.01098
3.23,0.243578,1.03412,2.77809,1.80119,3.75649,1.01101
3.24,0.24353,1.03423,2.77566,1.79882,3.75398,1.01104
3.25,0.243462,1.03433,2.77322,1.79646,3.75147,1.01106
3.26,0.243394,1.03445,2.77079,1.79409,3.74897,1.01112
3.27,0.243321,1.03459,2.76836,1.79172,3.74643,1.01116
3.28,0.24327,1.03471,2.76593,1.78935,3.74391,1.0112
3.29,0.243219,1.03482,2.76349,1.78699,3.7414,1.01123
3.3,0.243169,1.03492,2.76106,1.78464,3.73892,1.01126
3.31,0.243116,1.035,2.75863,1.7823,3.73646,1.01128
3.32,0.243053,1.03509,2.7562,1.77996,3.73403,1.01132
3.33,0.243001,1.03518,2.75377,1.77761,3.7316,1.01137
3.34,0.242947,1.03527,2.75134,1.77527,3.72916,1.01141
3.35,0.242889,1.03537,2.74891,1.77293,3.72671,1.01144
3.36,0.242835,1.03548,2.74649,1.77061,3.72424,1.01147
3.37,0.24278,1.03558,2.74406,1.76829,3.72176,1.01149
3.38,0.242708,1.0357,2.74163,1.76598,3.71929,1.01152
3.39,0.242647,1.03583,2.73921,1.76368,3.71683,1.01157
3.4,0.242585,1.03596,2.73678,1.76135,3.71435,1.01162
3.41,0.242513,1.03608,2.73436,1.75902,3.71186,1.01165
3.42,0.242445,1.0362,2.73193,1.75667,3.70936,1.01169
3.43,0.242348,1.03631,2.72951,1.75432,3.70685,1.01171
3.44,0.242251,1.03641,2.72709,1.75197,3.70435,1.01173
3.45,0.242152,1.03653,2.72467,1.7496,3.70186,1.01178
3.46,0.242111,1.03667,2.72225,1.74729,3.69936,1.01183
3.47,0.242061,1.03681,2.71983,1.74496,3.69685,1.01187
3.48,0.241994,1.03695,2.71741,1.74264,3.69434,1.01191
3.49,0.241962,1.03708,2.71499,1.7403,3.69182,1.01194
3.5,0.241923,1.0372,2.71257,1.73797,3.6893,1.01196
3.51,0.241876,1.03732,2.71015,1.73563,3.68681,1.01199
3.52,0.24183,1.03746,2.70773,1.73329,3.68428,1.01204
3.53,0.241793,1.0376,2.70532,1.73093,3.68175,1.01209
3.54,0.24177,1.03773,2.7029,1.72858,3.67923,1.01212
3.55,0.241742,1.03785,2.70048,1.72622,3.67671,1.01216
3.56,0.241712,1.03796,2.69806,1.72387,3.6742,1.01218
3.57,0.241669,1.03805,2.69565,1.72153,3.67172,1.0122
3.58,0.241631,1.03818,2.69323,1.71918,3.66924,1.01225
3.59,0.241617,1.0383,2.69082,1.71684,3.66676,1.0123
3.6,0.2416,1.03841,2.6884,1.71449,3.66427,1.01234
3.61,0.241564,1.03853,2.68599,1.71213,3.66177,1.01237
3.62,0.24155,1.03863,2.68357,1.70978,3.65927,1.0124
3.63,0.24152,1.03873,2.68116,1.70744,3.65678,1.01242
3.64,0.241469,1.03883,2.67874,1.70509,3.65431,1.01246
3.65,0.241408,1.03896,2.67633,1.70275,3.65182,1.01251
3.66,0.241348,1.03908,2.67392,1.7004,3.64933,1.01255
3.67,0.241288,1.03919,2.6715,1.69804,3.64684,1.01258
3.68,0.241217,1.03929,2.66909,1.69567,3.64434,1.01261
3.69,0.241133,1.03937,2.66668,1.6933,3.64186,1.01264
3.7,0.241046,1.03944,2.66427,1.69093,3.63939,1.01266
3.71,0.240956,1.03955,2.66186,1.68856,3.63691,1.01271
3.72,0.240867,1.03967,2.65945,1.6862,3.63443,1.01275
3.73,0.240767,1.03978,2.65705,1.68385,3.63194,1.01279
3.74,0.240487,1.03989,2.65464,1.6815,3.62945,1.01283
