time,velocity,ratio,centerX,Xmax,Xmin,Ymax
0,0,0.99998,1.1,0.1,2.1,0.99998
0.01,0.0140212,1.00003,1.09993,0.0999924,2.09992,0.999989
0.02,0.0257373,1.00016,1.09973,0.0999745,2.09968,1.00002
0.03,0.0356907,1.00038,1.09942,0.0999481,2.09931,1.00006
0.04,0.0441586,1.00066,1.09903,0.0999138,2.09883,1.00012
0.05,0.051446,1.00101,1.09855,0.0998714,2.09824,1.00019
0.06,0.0576882,1.00141,1.098,0.0998206,2.09757,1.00028
0.07,0.0630737,1.00186,1.0974,0.0997609,2.09682,1.00039
0.08,0.0677021,1.00236,1.09675,0.0996919,2.096,1.00051
0.09,0.0716781,1.0029,1.09605,0.099613,2.09512,1.00065
0.1,0.0750801,1.00347,1.09532,0.0995241,2.09418,1.00079
0.11,0.0779543,1.00407,1.09455,0.0994246,2.0932,1.00095
0.12,0.0803941,1.0047,1.09376,0.0993145,2.09217,1.00111
0.13,0.0824466,1.00535,1.09295,0.0991936,2.0911,1.00128
0.14,0.0841605,1.00602,1.09212,0.0990617,2.09,1.00146
0.15,0.0855773,1.0067,1.09127,0.0989189,2.08887,1.00165
0.16,0.0867356,1.00739,1.09041,0.0987651,2.08772,1.00183
0.17,0.0876447,1.0081,1.08954,0.0986005,2.08655,1.00202
0.18,0.0883411,1.00881,1.08866,0.0984251,2.08536,1.00222
0.19,0.0888567,1.00954,1.08777,0.0982391,2.08416,1.00243
0.2,0.0892333,1.01026,1.08688,0.0980431,2.08294,1.00263
0.21,0.0894703,1.01098,1.08599,0.0978369,2.08172,1.00284
0.22,0.0895802,1.0117,1.0851,0.0976213,2.0805,1.00304
0.23,0.0895636,1.01241,1.0842,0.0973965,2.07928,1.00324
0.24,0.0892448,1.01311,1.08331,0.0971623,2.07806,1.00343
0.25,0.089098,1.01381,1.08242,0.0969189,2.07684,1.00363
0.26,0.0888697,1.01449,1.08153,0.0966665,2.07562,1.00381
0.27,0.0885556,1.01516,1.08064,0.0964054,2.07441,1.004
0.28,0.0881705,1.01582,1.07976,0.0961359,2.07321,1.00418
0.29,0.0877267,1.01647,1.07888,0.0958583,2.07202,1.00435
0.3,0.0872075,1.0171,1.07801,0.0955726,2.07084,1.00452
0.31,0.0866324,1.01772,1.07714,0.0952788,2.06967,1.00469
0.32,0.0859942,1.01832,1.07628,0.0949796,2.06851,1.00484
0.33,0.0853025,1.01892,1.07542,0.0946741,2.06736,1.005
0.34,0.0845786,1.0195,1.07457,0.0943625,2.06623,1.00516
0.35,0.0838392,1.02007,1.07373,0.0940451,2.06512,1.00532
0.36,0.083092,1.02063,1.0729,0.0937219,2.06402,1.00547
0.37,0.0823384,1.02116,1.07207,0.0933923,2.06294,1.00562
0.38,0.0815765,1.02169,1.07125,0.0930563,2.06188,1.00576
0.39,0.0808121,1.02219,1.07044,0.092714,2.06083,1.00589
0.4,0.0800473,1.02268,1.06964,0.092366,2.0598,1.00602
0.41,0.0792831,1.02315,1.06884,0.0920128,2.05879,1.00615
0.42,0.0785098,1.0236,1.06805,0.0916545,2.05779,1.00627
0.43,0.0777279,1.02403,1.06727,0.0912912,2.05681,1.00638
0.44,0.0769342,1.02445,1.0665,0.0909233,2.05585,1.00649
0.45,0.076134,1.02486,1.06573,0.0905518,2.05491,1.00659
0.46,0.0753328,1.02525,1.06498,0.0901767,2.05397,1.00669
0.47,0.0745315,1.02562,1.06423,0.0897981,2.05306,1.00678
0.48,0.0737336,1.02599,1.06349,0.089416,2.05216,1.00687
0.49,0.0729416,1.02633,1.06275,0.0890305,2.05127,1.00695
0.5,0.0721496,1.02667,1.06203,0.0886424,2.0504,1.00703
0.51,0.071355,1.02699,1.06131,0.0882515,2.04954,1.00711
0.52,0.070567,1.02731,1.0606,0.0878584,2.0487,1.00719
0.53,0.069801,1.02761,1.0599,0.087463,2.04787,1.00727
0.54,0.0690517,1.02791,1.05921,0.0870651,2.04705,1.00734
0.55,0.0683278,1.02819,1.05852,0.0866652,2.04625,1.00741
0.56,0.0676265,1.02846,1.05784,0.0862636,2.04546,1.00748
0.57,0.0669448,1.02872,1.05717,0.08586,2.04469,1.00754
0.58,0.0662743,1.02897,1.0565,0.0854549,2.04393,1.0076
0.59,0.0656153,1.02921,1.05585,0.0850492,2.04318,1.00766
0.6,0.064967,1.02944,1.05519,0.0846432,2.04244,1.00772
0.61,0.0643256,1.02966,1.05455,0.0842357,2.04171,1.00777
0.62,0.0636912,1.02987,1.05391,0.0838266,2.041,1.00781
0.63,0.0630612,1.03007,1.05327,0.0834164,2.04029,1.00786
0.64,0.062435,1.03027,1.05265,0.0830059,2.03959,1.0079
0.65,0.0618229,1.03045,1.05203,0.082595,2.03891,1.00794
0.66,0.0612238,1.03063,1.05141,0.0821836,2.03823,1.00798
0.67,0.0606395,1.03081,1.0508,0.0817725,2.03756,1.00802
0.68,0.0600627,1.03097,1.0502,0.0813619,2.0369,1.00805
0.69,0.0594926,1.03113,1.0496,0.080952,2.03624,1.00808
0.7,0.0589326,1.03129,1.04901,0.0805425,2.0356,1.00811
0.71,0.0583902,1.03143,1.04842,0.080133,2.03496,1.00814
0.72,0.0578614,1.03158,1.04784,0.0797235,2.03433,1.00816
0.73,0.0573449,1.03171,1.04727,0.0793141,2.0337,1.00818
0.74,0.0568355,1.03185,1.0467,0.0789051,2.03309,1.00821
0.75,0.0563288,1.03198,1.04613,0.0784978,2.03248,1.00824
0.76,0.0558256,1.03211,1.04557,0.0780915,2.03188,1.00826
0.77,0.0553275,1.03224,1.04502,0.0776843,2.03128,1.00829
0.78,0.0548338,1.03236,1.04447,0.0772765,2.0307,1.00831
0.79,0.05436,1.03247,1.04392,0.0768684,2.03012,1.00834
0.8,0.0539084,1.03258,1.04338,0.07646,2.02955,1.00836
0.81,0.0534794,1.03269,1.04284,0.0760521,2.02898,1.00838
0.82,0.0530713,1.03279,1.04231,0.0756444,2.02842,1.0084
0.83,0.0526792,1.03288,1.04178,0.0752369,2.02787,1.00842
0.84,0.0523031,1.03298,1.04126,0.0748301,2.02732,1.00844
0.85,0.0519372,1.03307,1.04074,0.0744235,2.02678,1.00846
0.86,0.0515793,1.03315,1.04022,0.0740176,2.02624,1.00847
0.87,0.0512288,1.03324,1.03971,0.0736119,2.02571,1.00849
0.88,0.050881,1.03332,1.0392,0.0732077,2.02518,1.0085
0.89,0.0505388,1.0334,1.03869,0.0728048,2.02466,1.00852
0.9,0.0501998,1.03347,1.03819,0.0724026,2.02414,1.00853
0.91,0.0498618,1.03355,1.03769,0.0720011,2.02362,1.00854
0.92,0.0495278,1.03362,1.03719,0.0716004,2.0231,1.00856
0.93,0.0492147,1.03369,1.0367,0.0712016,2.02259,1.00857
0.94,0.0489032,1.03376,1.03621,0.0708034,2.02208,1.00858
0.95,0.0485973,1.03383,1.03572,0.0704069,2.02158,1.00859
0.96,0.0482989,1.03389,1.03524,0.0700115,2.02108,1.0086
0.97,0.0480039,1.03396,1.03475,0.0696176,2.02058,1.0086
0.98,0.047714,1.03402,1.03428,0.0692245,2.02008,1.00861
0.99,0.0474286,1.03408,1.0338,0.0688323,2.01959,1.00862
1,0.0471467,1.03414,1.03333,0.0684415,2.0191,1.00862
1.01,0.0468679,1.03419,1.03286,0.0680522,2.01861,1.00863
1.02,0.0465935,1.03425,1.03239,0.0676649,2.01813,1.00863
1.03,0.0463236,1.0343,1.03193,0.06728,2.01765,1.00864
1.04,0.0460513,1.03436,1.03147,0.0668969,2.01717,1.00865
1.05,0.0457796,1.03442,1.03101,0.0665149,2.0167,1.00866
1.06,0.0455123,1.03448,1.03055,0.0661341,2.01623,1.00867
1.07,0.0452488,1.03454,1.0301,0.0657553,2.01576,1.00868
1.08,0.0449812,1.03459,1.02965,0.0653778,2.01529,1.00868
1.09,0.0447136,1.03465,1.0292,0.0650013,2.01483,1.00869
1.1,0.0444313,1.0347,1.02875,0.0646257,2.01438,1.0087
1.11,0.0441751,1.03475,1.02831,0.0642514,2.01392,1.00871
1.12,0.0439291,1.0348,1.02787,0.0638783,2.01347,1.00872
1.13,0.0436949,1.03485,1.02743,0.0635074,2.01302,1.00873
1.14,0.0434674,1.0349,1.027,0.0631391,2.01258,1.00874
1.15,0.0432467,1.03496,1.02657,0.0627725,2.01214,1.00875
1.16,0.0430333,1.03501,1.02613,0.0624136,2.0117,1.00876
1.17,0.042823,1.03506,1.02571,0.0620643,2.01126,1.00877
1.18,0.042622,1.03512,1.02528,0.0617069,2.01083,1.00878
1.19,0.0424299,1.03517,1.02485,0.0613491,2.01039,1.00879
1.2,0.0422436,1.03522,1.02443,0.0609928,2.00996,1.0088
1.21,0.0420618,1.03528,1.02401,0.0606607,2.00953,1.00881
1.22,0.041884,1.03534,1.02359,0.0603243,2.0091,1.00882
1.23,0.0417054,1.03539,1.02317,0.0599829,2.00868,1.00883
1.24,0.0415113,1.03544,1.02276,0.0596399,2.00825,1.00883
1.25,0.0413295,1.03549,1.02234,0.0592961,2.00782,1.00884
1.26,0.0411542,1.03554,1.02193,0.0589528,2.0074,1.00885
1.27,0.0409772,1.03559,1.02152,0.0586108,2.00698,1.00885
1.28,0.0407983,1.03564,1.02111,0.0582703,2.00656,1.00886
1.29,0.0406178,1.03568,1.02071,0.0579304,2.00614,1.00886
1.3,0.040433,1.03573,1.0203,0.0575913,2.00573,1.00887
1.31,0.040249,1.03577,1.0199,0.0572532,2.00531,1.00887
1.32,0.0400659,1.03582,1.0195,0.0569169,2.0049,1.00888
1.33,0.0398814,1.03586,1.0191,0.0565819,2.00449,1.00888
1.34,0.0396973,1.03591,1.0187,0.0562528,2.00408,1.00888
1.35,0.0395172,1.03596,1.0183,0.055945,2.00367,1.00889
1.36,0.0393374,1.03601,1.01791,0.0556335,2.00327,1.00889
1.37,0.039156,1.03606,1.01752,0.0553199,2.00287,1.00889
1.38,0.0389746,1.03611,1.01713,0.0550055,2.00246,1.00889
1.39,0.0387948,1.03616,1.01674,0.054691,2.00206,1.0089
1.4,0.0386155,1.03622,1.01635,0.0543779,2.00167,1.00891
1.41,0.0384348,1.03627,1.01597,0.0540652,2.00127,1.00891
1.42,0.038253,1.03632,1.01559,0.0537529,2.00087,1.00892
1.43,0.0380721,1.03637,1.0152,0.0534416,2.00048,1.00893
1.44,0.0378924,1.03642,1.01482,0.0531323,2.00009,1.00894
1.45,0.0377162,1.03648,1.01445,0.052826,1.9997,1.00894
1.46,0.0375253,1.03653,1.01407,0.0525211,1.99931,1.00895
1.47,0.037335,1.03658,1.0137,0.0522169,1.99893,1.00896
1.48,0.0371441,1.03663,1.01333,0.0519135,1.99855,1.00897
1.49,0.0369554,1.03668,1.01296,0.051611,1.99817,1.00898
1.5,0.0367765,1.03673,1.01259,0.0513094,1.99779,1.00898
1.51,0.0366043,1.03677,1.01222,0.0510088,1.99742,1.00899
1.52,0.0364395,1.03682,1.01186,0.0507106,1.99705,1.009
1.53,0.0362791,1.03687,1.01149,0.050413,1.99668,1.00901
1.54,0.0361206,1.03692,1.01113,0.0501163,1.99631,1.00902
1.55,0.0359639,1.03697,1.01077,0.0498215,1.99594,1.00903
1.56,0.035811,1.03702,1.01041,0.0495292,1.99558,1.00904
1.57,0.0356611,1.03707,1.01006,0.0492389,1.99521,1.00905
1.58,0.0355082,1.03712,1.0097,0.0489503,1.99485,1.00906
1.59,0.0353594,1.03717,1.00935,0.0486705,1.99449,1.00907
1.6,0.0352145,1.03723,1.00899,0.0483976,1.99412,1.00908
1.61,0.0350732,1.03728,1.00864,0.048126,1.99376,1.00909
1.62,0.0349355,1.03734,1.00829,0.0478551,1.9934,1.00909
1.63,0.034801,1.03739,1.00794,0.0475852,1.99304,1.0091
1.64,0.0346693,1.03745,1.0076,0.0473162,1.99269,1.00911
1.65,0.0345408,1.0375,1.00725,0.0470482,1.99233,1.00912
1.66,0.034414,1.03756,1.00691,0.0467814,1.99197,1.00912
1.67,0.0342894,1.03761,1.00656,0.0465169,1.99162,1.00913
1.68,0.0341628,1.03766,1.00622,0.0462545,1.99126,1.00913
1.69,0.034034,1.03772,1.00588,0.0459932,1.99091,1.00914
1.7,0.0338994,1.03777,1.00554,0.045733,1.99056,1.00914
1.71,0.0337618,1.03782,1.0052,0.0454733,1.99021,1.00915
1.72,0.0336218,1.03788,1.00487,0.0452156,1.98986,1.00915
1.73,0.033482,1.03793,1.00453,0.0449595,1.98952,1.00916
1.74,0.0333413,1.03798,1.0042,0.0447047,1.98917,1.00916
1.75,0.0331989,1.03803,1.00387,0.044452,1.98883,1.00916
1.76,0.0330571,1.03809,1.00354,0.044201,1.98848,1.00917
1.77,0.0329141,1.03814,1.00321,0.0439518,1.98814,1.00917
1.78,0.0327692,1.03819,1.00288,0.0437039,1.9878,1.00917
1.79,0.0326253,1.03824,1.00255,0.0434579,1.98747,1.00918
1.8,0.03248,1.0383,1.00223,0.0432128,1.98713,1.00918
1.81,0.0323352,1.03835,1.0019,0.0429694,1.98679,1.00918
1.82,0.0321876,1.0384,1.00158,0.0427274,1.98646,1.00919
1.83,0.0320401,1.03846,1.00126,0.0424875,1.98613,1.0092
1.84,0.0318915,1.03852,1.00094,0.0422492,1.9858,1.0092
1.85,0.0317433,1.03857,1.00062,0.0420119,1.98547,1.00921
1.86,0.0315937,1.03863,1.00031,0.041776,1.98514,1.00922
1.87,0.031445,1.03869,0.999991,0.0415419,1.98481,1.00923
1.88,0.0312992,1.03874,0.999677,0.0413093,1.98449,1.00923
1.89,0.0311512,1.0388,0.999365,0.0410793,1.98417,1.00924
1.9,0.0310018,1.03886,0.999055,0.0408503,1.98385,1.00925
1.91,0.0308446,1.03892,0.998746,0.0406227,1.98353,1.00926
1.92,0.0306854,1.03897,0.998439,0.0403965,1.98321,1.00927
1.93,0.0305297,1.03903,0.998133,0.0401719,1.98289,1.00927
1.94,0.0303799,1.03909,0.997829,0.0399487,1.98258,1.00928
1.95,0.0302364,1.03915,0.997526,0.0397281,1.98227,1.00929
1.96,0.0300942,1.03921,0.997224,0.0395093,1.98196,1.0093
1.97,0.0299501,1.03927,0.996925,0.0392918,1.98165,1.00931
1.98,0.0298129,1.03932,0.996626,0.0390747,1.98134,1.00932
1.99,0.0296827,1.03938,0.996329,0.0388607,1.98103,1.00933
2,0.0295542,1.03944,0.996033,0.0386486,1.98073,1.00934
2.01,0.0294273,1.0395,0.995738,0.0384381,1.98042,1.00935
2.02,0.0293027,1.03957,0.995445,0.0382294,1.98012,1.00936
2.03,0.0291766,1.03963,0.995153,0.038022,1.97982,1.00937
2.04,0.0290507,1.03969,0.994862,0.0378154,1.97951,1.00938
2.05,0.028928,1.03975,0.994573,0.0376098,1.97921,1.00939
2.06,0.0288056,1.03981,0.994284,0.0374048,1.97891,1.0094
2.07,0.0286862,1.03987,0.993997,0.0372008,1.97861,1.0094
2.08,0.0285675,1.03993,0.993711,0.0369978,1.97831,1.00941
2.09,0.0284569,1.03999,0.993426,0.036796,1.97802,1.00942
2.1,0.0283418,1.04004,0.993143,0.0365955,1.97772,1.00943
2.11,0.0282271,1.0401,0.99286,0.0363966,1.97742,1.00944
2.12,0.0281154,1.04016,0.992579,0.0361991,1.97713,1.00944
2.13,0.0280082,1.04022,0.992299,0.0360029,1.97684,1.00945
2.14,0.0279016,1.04028,0.99202,0.0358078,1.97654,1.00946
2.15,0.0277969,1.04034,0.991742,0.0356138,1.97625,1.00946
2.16,0.0276959,1.0404,0.991464,0.035421,1.97596,1.00947
2.17,0.02759,1.04045,0.991188,0.0352292,1.97568,1.00947
2.18,0.0274802,1.04051,0.990913,0.0350384,1.97539,1.00948
2.19,0.0273688,1.04057,0.99064,0.0348487,1.9751,1.00948
2.2,0.0272581,1.04063,0.990367,0.0346605,1.97482,1.00949
2.21,0.0271469,1.04068,0.990095,0.0344737,1.97453,1.00949
2.22,0.0270351,1.04074,0.989825,0.0342878,1.97425,1.0095
2.23,0.0269221,1.04079,0.989555,0.034103,1.97397,1.0095
2.24,0.0268073,1.04085,0.989287,0.0339191,1.97369,1.00951
2.25,0.0266888,1.04091,0.98902,0.0337362,1.97341,1.00951
2.26,0.02657,1.04096,0.988754,0.0335543,1.97313,1.00951
2.27,0.0264452,1.04102,0.988489,0.0333736,1.97286,1.00952
2.28,0.0263194,1.04107,0.988226,0.0331937,1.97258,1.00952
2.29,0.0261938,1.04113,0.987963,0.0330147,1.97231,1.00952
2.3,0.0260711,1.04118,0.987702,0.0328369,1.97204,1.00953
2.31,0.0259468,1.04123,0.987443,0.0326608,1.97177,1.00953
2.32,0.025824,1.04129,0.987184,0.0324861,1.9715,1.00953
2.33,0.0257028,1.04134,0.986927,0.0323127,1.97123,1.00954
2.34,0.0255798,1.0414,0.986671,0.0321404,1.97096,1.00954
2.35,0.0254566,1.04145,0.986416,0.0319692,1.9707,1.00955
2.36,0.0253303,1.04151,0.986163,0.0317992,1.97043,1.00955
2.37,0.025207,1.04157,0.98591,0.0316302,1.97017,1.00956
2.38,0.0250802,1.04163,0.985659,0.0314622,1.96991,1.00957
2.39,0.0249546,1.04168,0.985409,0.0312951,1.96965,1.00957
2.4,0.0248308,1.04175,0.985161,0.0311424,1.96939,1.00958
2.41,0.0247048,1.0418,0.984913,0.0309776,1.96913,1.00959
2.42,0.0245814,1.04187,0.984667,0.030827,1.96887,1.00959
2.43,0.0244624,1.04193,0.984423,0.0306705,1.96862,1.0096
2.44,0.0243418,1.04199,0.984179,0.0305156,1.96837,1.00961
2.45,0.0242199,1.04204,0.983936,0.030358,1.96811,1.00961
2.46,0.0240973,1.0421,0.983695,0.0302,1.96786,1.00962
2.47,0.023975,1.04216,0.983455,0.0300475,1.96762,1.00963
2.48,0.0238505,1.04222,0.983216,0.0299073,1.96737,1.00964
2.49,0.0237277,1.04228,0.982979,0.0297581,1.96713,1.00964
2.5,0.0236063,1.04234,0.982742,0.0296102,1.96688,1.00965
2.51,0.0234898,1.0424,0.982507,0.0294614,1.96664,1.00966
2.52,0.0233778,1.04246,0.982273,0.0293147,1.9664,1.00967
2.53,0.0232697,1.04252,0.98204,0.0291655,1.96616,1.00968
2.54,0.0231664,1.04258,0.981809,0.0290164,1.96592,1.00968
2.55,0.0230638,1.04263,0.981578,0.0288667,1.96568,1.00969
2.56,0.0229644,1.04269,0.981348,0.028718,1.96544,1.0097
2.57,0.0228669,1.04275,0.981119,0.0285778,1.96521,1.00971
2.58,0.0227649,1.04281,0.980891,0.028446,1.96497,1.00972
2.59,0.0226644,1.04288,0.980665,0.0283089,1.96473,1.00972
2.6,0.0225653,1.04293,0.980439,0.0281692,1.9645,1.00973
2.61,0.0224667,1.04299,0.980214,0.0280311,1.96427,1.00974
2.62,0.0223692,1.04305,0.97999,0.0278925,1.96403,1.00975
2.63,0.0222705,1.04311,0.979767,0.0277524,1.9638,1.00976
2.64,0.0221718,1.04317,0.979545,0.0276175,1.96357,1.00976
2.65,0.0220687,1.04323,0.979324,0.0274816,1.96334,1.00977
2.66,0.0219679,1.04328,0.979105,0.0273421,1.96311,1.00978
2.67,0.0218693,1.04334,0.978886,0.0272061,1.96288,1.00978
2.68,0.0217718,1.0434,0.978668,0.0270699,1.96265,1.00979
2.69,0.0216756,1.04345,0.978451,0.0269342,1.96242,1.0098
2.7,0.0215819,1.04351,0.978235,0.0267984,1.96219,1.0098
2.71,0.0214893,1.04357,0.97802,0.0266659,1.96197,1.00981
2.72,0.021398,1.04363,0.977806,0.026545,1.96174,1.00981
2.73,0.0213115,1.04369,0.977593,0.0264238,1.96152,1.00982
2.74,0.0212222,1.04375,0.97738,0.0262989,1.9613,1.00983
2.75,0.021135,1.04381,0.977169,0.0261727,1.96108,1.00983
2.76,0.02105,1.04386,0.976958,0.0260482,1.96086,1.00984
2.77,0.0209671,1.04392,0.976748,0.0259247,1.96064,1.00984
2.78,0.0208861,1.04398,0.97654,0.025802,1.96042,1.00985
2.79,0.0208065,1.04403,0.976331,0.0256798,1.9602,1.00985
2.8,0.0207245,1.04409,0.976124,0.0255574,1.95998,1.00986
2.81,0.0206403,1.04415,0.975918,0.0254404,1.95977,1.00986
2.82,0.0205517,1.0442,0.975712,0.025324,1.95955,1.00986
2.83,0.020462,1.04426,0.975507,0.0252049,1.95934,1.00987
2.84,0.0203732,1.04431,0.975303,0.0250835,1.95913,1.00987
2.85,0.0202806,1.04437,0.975101,0.0249649,1.95891,1.00988
2.86,0.0201871,1.04442,0.974899,0.024847,1.9587,1.00988
2.87,0.0200924,1.04447,0.974697,0.02473,1.95849,1.00988
2.88,0.0199952,1.04453,0.974497,0.0246138,1.95828,1.00989
2.89,0.0198966,1.04458,0.974298,0.0244984,1.95808,1.00989
2.9,0.0197969,1.04463,0.9741,0.0243808,1.95787,1.00989
2.91,0.0196969,1.04469,0.973903,0.0242703,1.95766,1.0099
2.92,0.0195946,1.04475,0.973707,0.0241658,1.95746,1.0099
2.93,0.0194921,1.04481,0.973512,0.0240628,1.95725,1.00991
2.94,0.0193869,1.04486,0.973318,0.0239584,1.95705,1.00991
2.95,0.0192639,1.04492,0.973125,0.0238525,1.95685,1.00991
2.96,0.01915,1.04497,0.972933,0.0237466,1.95665,1.00992
2.97,0.019038,1.04503,0.972742,0.0236418,1.95645,1.00992
2.98,0.0189264,1.04509,0.972553,0.0235383,1.95625,1.00992
2.99,0.018814,1.04514,0.972364,0.0234359,1.95605,1.00993
3,0.0186992,1.0452,0.972177,0.0233343,1.95586,1.00993
3.01,0.0186382,1.04525,0.971991,0.0232335,1.95566,1.00993
3.02,0.0185788,1.0453,0.971805,0.0231319,1.95546,1.00994
3.03,0.0185131,1.04536,0.97162,0.0230319,1.95527,1.00994
3.04,0.0184387,1.04542,0.971436,0.0229352,1.95508,1.00995
3.05,0.0183641,1.04547,0.971252,0.0228402,1.95489,1.00995
3.06,0.0182834,1.04553,0.971069,0.0227446,1.9547,1.00996
3.07,0.0181992,1.04558,0.970887,0.0226477,1.95451,1.00996
3.08,0.0181137,1.04564,0.970706,0.0225494,1.95432,1.00996
3.09,0.0180258,1.04569,0.970525,0.0224519,1.95413,1.00997
3.1,0.0179365,1.04574,0.970346,0.0223553,1.95394,1.00997
3.11,0.0178477,1.0458,0.970167,0.0222595,1.95376,1.00998
3.12,0.0177577,1.04585,0.969989,0.022164,1.95357,1.00998
3.13,0.0176705,1.0459,0.969813,0.0220692,1.95339,1.00998
3.14,0.0175806,1.04595,0.969637,0.0219752,1.9532,1.00999
3.15,0.017494,1.04601,0.969462,0.021882,1.95302,1.00999
3.16,0.0174091,1.04606,0.969287,0.0217865,1.95284,1.01
3.17,0.0173233,1.04611,0.969114,0.0216931,1.95266,1.01
3.18,0.0172371,1.04616,0.968942,0.0216037,1.95249,1.01001
3.19,0.0171513,1.04622,0.96877,0.0215174,1.95231,1.01001
3.2,0.0170652,1.04627,0.968599,0.0214325,1.95213,1.01002
3.21,0.0169781,1.04633,0.96843,0.021348,1.95196,1.01003
3.22,0.0168918,1.04638,0.968261,0.0212633,1.95178,1.01003
3.23,0.0168063,1.04644,0.968092,0.0211783,1.95161,1.01004
3.24,0.0167206,1.04649,0.967925,0.0210933,1.95144,1.01004
3.25,0.0166363,1.04654,0.967759,0.0210089,1.95127,1.01005
3.26,0.0165548,1.0466,0.967593,0.0209252,1.95109,1.01006
3.27,0.0164752,1.04665,0.967428,0.0208421,1.95092,1.01006
3.28,0.0163979,1.04671,0.967264,0.0207599,1.95075,1.01007
3.29,0.0163236,1.04676,0.967101,0.0206785,1.95058,1.01008
3.3,0.0162507,1.04682,0.966938,0.020598,1.95041,1.01008
3.31,0.0161804,1.04687,0.966777,0.0205184,1.95025,1.01009
3.32,0.0161126,1.04693,0.966615,0.0204386,1.95008,1.0101
3.33,0.0160469,1.04698,0.966455,0.0203588,1.94991,1.0101
3.34,0.0159822,1.04703,0.966295,0.0202806,1.94975,1.01011
3.35,0.015919,1.04709,0.966136,0.0202044,1.94958,1.01011
3.36,0.0158545,1.04715,0.965977,0.0201298,1.94941,1.01012
3.37,0.0157903,1.0472,0.96582,0.0200558,1.94925,1.01013
3.38,0.0157262,1.04726,0.965662,0.019982,1.94908,1.01013
3.39,0.0156623,1.04731,0.965506,0.0199081,1.94892,1.01014
3.4,0.0155994,1.04737,0.96535,0.0198343,1.94876,1.01015
3.41,0.0155371,1.04742,0.965194,0.0197603,1.94859,1.01015
3.42,0.015475,1.04748,0.96504,0.0196866,1.94843,1.01016
3.43,0.0154092,1.04753,0.964885,0.0196132,1.94827,1.01016
3.44,0.0153435,1.04758,0.964732,0.0195405,1.94811,1.01017
3.45,0.0152755,1.04764,0.964579,0.0194683,1.94795,1.01017
3.46,0.0152099,1.04769,0.964427,0.0193965,1.94779,1.01018
3.47,0.0151428,1.04774,0.964276,0.019325,1.94763,1.01018
3.48,0.0150763,1.0478,0.964125,0.0192541,1.94747,1.01019
3.49,0.0150116,1.04785,0.963975,0.0191837,1.94731,1.01019
3.5,0.0149469,1.0479,0.963825,0.0191136,1.94715,1.0102
3.51,0.0148859,1.04796,0.963676,0.0190425,1.947,1.0102
