time,velocity,ratio,centerX,Xmax,Xmin,Ymax
0,0,1,11,10,12,1
0.01,0.0184071,0.999989,10.9999,9.99989,11.9999,1.00001
0.02,0.0343906,1,10.9997,9.99964,11.9997,1.00001
0.03,0.0484374,1.00001,10.9993,9.99924,11.9992,1.00002
0.04,0.0607754,1.00003,10.9987,9.9987,11.9987,1.00002
0.05,0.07183,1.00004,10.9981,9.99805,11.998,1.00002
0.06,0.0817302,1.00005,10.9973,9.99729,11.9972,1.00002
0.07,0.0906293,1.00005,10.9964,9.99643,11.9964,1.00002
0.08,0.0986797,1.00006,10.9955,9.9955,11.9954,1.00002
0.09,0.105982,1.00006,10.9945,9.99448,11.9944,1.00002
0.1,0.112632,1.00006,10.9934,9.9934,11.9933,1.00002
0.11,0.118714,1.00006,10.9922,9.99225,11.9922,1.00001
0.12,0.124308,1.00006,10.991,9.99105,11.991,1.00001
0.13,0.12948,1.00007,10.9898,9.9898,11.9897,1.00003
0.14,0.134267,1.00008,10.9885,9.9885,11.9884,1.00004
0.15,0.13867,1.00008,10.9871,9.98715,11.9871,1.00005
0.16,0.142751,1.00008,10.9857,9.98576,11.9857,1.00006
0.17,0.146544,1.00006,10.9842,9.98434,11.9843,1.00007
0.18,0.150108,1.00004,10.9828,9.98287,11.9829,1.00007
0.19,0.153447,1.00001,10.9813,9.98137,11.9815,1.00007
0.2,0.156588,0.999983,10.9797,9.97983,11.98,1.00007
0.21,0.159532,0.999957,10.9781,9.97826,11.9785,1.00006
0.22,0.162312,0.999937,10.9765,9.97667,11.9769,1.00006
0.23,0.164943,0.999944,10.9749,9.97506,11.9753,1.00008
0.24,0.167441,0.999958,10.9732,9.97342,11.9737,1.0001
0.25,0.169811,0.999974,10.9715,9.97176,11.972,1.00012
0.26,0.17206,0.99999,10.9698,9.97008,11.9704,1.00013
0.27,0.174184,1,10.9681,9.96839,11.9687,1.00013
0.28,0.176258,1.00001,10.9664,9.96667,11.9669,1.00014
0.29,0.178236,1.00001,10.9646,9.96492,11.9652,1.00015
0.3,0.180124,1.00002,10.9628,9.96315,11.9634,1.00015
0.31,0.181898,1.00003,10.961,9.96137,11.9616,1.00016
0.32,0.18361,1.00006,10.9592,9.95957,11.9598,1.00017
0.33,0.185259,1.0001,10.9573,9.95776,11.9579,1.00019
0.34,0.186851,1.00015,10.9555,9.95594,11.9561,1.00021
0.35,0.188375,1.00019,10.9536,9.95411,11.9542,1.00023
0.36,0.189841,1.00023,10.9517,9.95226,11.9523,1.00024
0.37,0.19127,1.00026,10.9498,9.95038,11.9504,1.00025
0.38,0.192653,1.00029,10.9479,9.94848,11.9484,1.00026
0.39,0.193949,1.00031,10.9459,9.94657,11.9465,1.00027
0.4,0.195192,1.00034,10.944,9.94464,11.9445,1.00027
0.41,0.196415,1.0004,10.942,9.9427,11.9425,1.00029
0.42,0.197576,1.00045,10.9401,9.94074,11.9405,1.00032
0.43,0.198732,1.0005,10.9381,9.93878,11.9384,1.00034
0.44,0.199826,1.00055,10.9361,9.93681,11.9364,1.00036
0.45,0.20091,1.00061,10.9341,9.93484,11.9344,1.00037
0.46,0.201937,1.00067,10.9321,9.93286,11.9323,1.00038
0.47,0.202959,1.00073,10.9301,9.93087,11.9302,1.00039
0.48,0.20393,1.00079,10.928,9.92887,11.9281,1.00039
0.49,0.204906,1.00087,10.926,9.92687,11.926,1.00043
0.5,0.205867,1.00096,10.9239,9.92486,11.9239,1.00045
0.51,0.206797,1.00103,10.9219,9.92285,11.9217,1.00048
0.52,0.207683,1.00109,10.9198,9.92083,11.9196,1.0005
0.53,0.208568,1.00115,10.9177,9.91879,11.9175,1.00051
0.54,0.209397,1.00121,10.9156,9.91674,11.9154,1.00053
0.55,0.210226,1.00127,10.9135,9.91469,11.9132,1.00054
0.56,0.211004,1.00134,10.9114,9.91263,11.9111,1.00056
0.57,0.211818,1.00143,10.9093,9.91057,11.9089,1.00059
0.58,0.212579,1.00152,10.9072,9.90851,11.9067,1.00062
0.59,0.213305,1.0016,10.9051,9.90644,11.9045,1.00064
0.6,0.21404,1.00167,10.9029,9.90437,11.9024,1.00066
0.61,0.214767,1.00174,10.9008,9.90228,11.9002,1.00068
0.62,0.21544,1.00181,10.8986,9.90019,11.8979,1.00069
0.63,0.216129,1.00189,10.8965,9.89809,11.8957,1.0007
0.64,0.216785,1.00199,10.8943,9.896,11.8935,1.00074
0.65,0.217449,1.00209,10.8922,9.8939,11.8913,1.00077
0.66,0.218074,1.00218,10.89,9.8918,11.889,1.00079
0.67,0.218709,1.00227,10.8878,9.8897,11.8868,1.00082
0.68,0.219323,1.00235,10.8856,9.88758,11.8845,1.00083
0.69,0.219901,1.00242,10.8834,9.88543,11.8823,1.00085
0.7,0.220435,1.00249,10.8812,9.88327,11.88,1.00085
0.71,0.220976,1.00257,10.879,9.8811,11.8777,1.00089
0.72,0.221508,1.00265,10.8768,9.87892,11.8755,1.00092
0.73,0.22204,1.00272,10.8746,9.87673,11.8732,1.00095
0.74,0.222571,1.0028,10.8724,9.87452,11.8709,1.00097
0.75,0.223085,1.00289,10.8701,9.87234,11.8685,1.00099
0.76,0.223586,1.00298,10.8679,9.87016,11.8662,1.001
0.77,0.224086,1.00305,10.8657,9.86798,11.8639,1.00101
0.78,0.224617,1.00314,10.8634,9.86579,11.8616,1.00104
0.79,0.225152,1.00322,10.8612,9.8636,11.8593,1.00108
0.8,0.225683,1.00329,10.8589,9.8614,11.8571,1.00111
0.81,0.226207,1.00335,10.8567,9.8592,11.8548,1.00113
0.82,0.226736,1.00341,10.8544,9.85699,11.8525,1.00115
0.83,0.227221,1.00346,10.8521,9.85476,11.8502,1.00117
0.84,0.227709,1.00351,10.8499,9.85253,11.8479,1.00118
0.85,0.228186,1.00359,10.8476,9.8503,11.8456,1.00121
0.86,0.228676,1.00367,10.8453,9.84806,11.8432,1.00125
0.87,0.229119,1.00374,10.843,9.84583,11.8409,1.00128
0.88,0.229576,1.00381,10.8407,9.84359,11.8386,1.0013
0.89,0.230024,1.00388,10.8384,9.84135,11.8362,1.00132
0.9,0.230474,1.00394,10.8361,9.83909,11.8339,1.00133
0.91,0.230903,1.004,10.8338,9.83683,11.8315,1.00134
0.92,0.231359,1.00409,10.8315,9.83456,11.8292,1.00138
0.93,0.231792,1.00417,10.8292,9.8323,11.8268,1.00141
0.94,0.232241,1.00425,10.8269,9.83003,11.8244,1.00144
0.95,0.232637,1.00434,10.8245,9.82777,11.822,1.00146
0.96,0.23304,1.00441,10.8222,9.82548,11.8196,1.00148
0.97,0.233424,1.00447,10.8199,9.82319,11.8172,1.00149
0.98,0.233822,1.00454,10.8175,9.82088,11.8148,1.0015
0.99,0.234191,1.00462,10.8152,9.81856,11.8124,1.00154
1,0.234588,1.0047,10.8129,9.81625,11.81,1.00157
1.01,0.234953,1.00479,10.8105,9.81393,11.8076,1.00159
1.02,0.235336,1.00488,10.8082,9.81161,11.8051,1.00162
1.03,0.235683,1.00496,10.8058,9.8093,11.8027,1.00163
1.04,0.23603,1.00504,10.8035,9.80698,11.8002,1.00164
1.05,0.236371,1.00513,10.8011,9.80467,11.7978,1.00167
1.06,0.236729,1.00522,10.7987,9.80235,11.7954,1.0017
1.07,0.237104,1.00531,10.7964,9.80004,11.7929,1.00174
1.08,0.237477,1.0054,10.794,9.79773,11.7905,1.00176
1.09,0.237821,1.00549,10.7916,9.79542,11.788,1.00179
1.1,0.238163,1.00558,10.7892,9.79309,11.7856,1.0018
1.11,0.238471,1.00566,10.7869,9.79076,11.7831,1.00182
1.12,0.238822,1.00576,10.7845,9.78843,11.7807,1.00185
1.13,0.239124,1.00586,10.7821,9.78611,11.7782,1.00189
1.14,0.23942,1.00596,10.7797,9.78379,11.7758,1.00193
1.15,0.239717,1.00607,10.7773,9.78148,11.7733,1.00195
1.16,0.240014,1.00617,10.7749,9.77916,11.7708,1.00197
1.17,0.2403,1.00627,10.7725,9.77684,11.7683,1.00199
1.18,0.240592,1.00637,10.7701,9.77451,11.7659,1.00201
1.19,0.24089,1.00648,10.7677,9.77219,11.7634,1.00205
1.2,0.241186,1.0066,10.7653,9.76988,11.7609,1.00209
1.21,0.241451,1.00672,10.7629,9.76757,11.7584,1.00212
1.22,0.241687,1.00685,10.7605,9.76527,11.7559,1.00214
1.23,0.241904,1.00696,10.758,9.76296,11.7534,1.00216
1.24,0.242141,1.00706,10.7556,9.76062,11.7509,1.00217
1.25,0.242373,1.00717,10.7532,9.75828,11.7484,1.00221
1.26,0.242582,1.00729,10.7508,9.75592,11.7459,1.00225
1.27,0.242789,1.0074,10.7483,9.75355,11.7434,1.00228
1.28,0.242998,1.0075,10.7459,9.75117,11.7409,1.00231
1.29,0.243224,1.00758,10.7435,9.74879,11.7384,1.00233
1.3,0.243464,1.00766,10.7411,9.74643,11.7359,1.00235
1.31,0.243691,1.00773,10.7386,9.74408,11.7334,1.00237
1.32,0.243954,1.00781,10.7362,9.74171,11.731,1.00242
1.33,0.244257,1.00789,10.7337,9.73934,11.7286,1.00245
1.34,0.24455,1.00797,10.7313,9.73697,11.7261,1.00248
1.35,0.244851,1.00804,10.7288,9.7346,11.7236,1.00251
1.36,0.245106,1.00811,10.7264,9.73221,11.7211,1.00253
1.37,0.245394,1.00817,10.7239,9.72982,11.7187,1.00254
1.38,0.24564,1.00825,10.7215,9.72741,11.7162,1.00258
1.39,0.24591,1.00833,10.719,9.72501,11.7137,1.00262
1.4,0.246154,1.00842,10.7166,9.72262,11.7112,1.00266
1.41,0.246426,1.00851,10.7141,9.72022,11.7087,1.00269
1.42,0.246651,1.00859,10.7117,9.71782,11.7061,1.00271
1.43,0.246939,1.00867,10.7092,9.71541,11.7036,1.00272
1.44,0.2472,1.00876,10.7067,9.71299,11.7011,1.00275
1.45,0.247496,1.00886,10.7042,9.71057,11.6986,1.00279
1.46,0.247743,1.00896,10.7018,9.70816,11.696,1.00283
1.47,0.24799,1.00906,10.6993,9.70574,11.6935,1.00286
1.48,0.248211,1.00916,10.6968,9.70333,11.6909,1.00288
1.49,0.248464,1.00925,10.6943,9.7009,11.6883,1.0029
1.5,0.248712,1.00933,10.6918,9.69846,11.6857,1.00292
1.51,0.248968,1.00945,10.6894,9.69601,11.6832,1.00296
1.52,0.249197,1.00955,10.6869,9.69355,11.6806,1.003
1.53,0.24945,1.00966,10.6844,9.69109,11.678,1.00303
1.54,0.249671,1.00976,10.6819,9.68863,11.6754,1.00305
1.55,0.249907,1.00985,10.6794,9.68617,11.6728,1.00307
1.56,0.250099,1.00992,10.6769,9.68372,11.6702,1.00309
1.57,0.250309,1.01003,10.6744,9.68127,11.6676,1.00313
1.58,0.250508,1.01014,10.6719,9.67881,11.665,1.00317
1.59,0.250762,1.01025,10.6694,9.67636,11.6624,1.00321
1.6,0.250965,1.01036,10.6669,9.67391,11.6598,1.00324
1.61,0.25118,1.01046,10.6644,9.67147,11.6572,1.00326
1.62,0.251346,1.01055,10.6618,9.66902,11.6546,1.00328
1.63,0.251532,1.01066,10.6593,9.66655,11.652,1.00332
1.64,0.25171,1.01077,10.6568,9.66409,11.6494,1.00336
1.65,0.251917,1.01089,10.6543,9.66164,11.6468,1.0034
1.66,0.252094,1.01101,10.6518,9.65919,11.6442,1.00343
1.67,0.252304,1.01112,10.6493,9.65674,11.6416,1.00345
1.68,0.252482,1.01122,10.6467,9.65429,11.639,1.00347
1.69,0.252694,1.01133,10.6442,9.65183,11.6364,1.0035
1.7,0.252883,1.01145,10.6417,9.64937,11.6337,1.00355
1.71,0.253031,1.01158,10.6392,9.64691,11.6311,1.00359
1.72,0.253146,1.0117,10.6366,9.64446,11.6285,1.00362
1.73,0.25328,1.01182,10.6341,9.64201,11.6259,1.00364
1.74,0.253408,1.01192,10.6316,9.63957,11.6232,1.00366
1.75,0.253573,1.01204,10.629,9.6371,11.6206,1.00369
1.76,0.25371,1.01218,10.6265,9.63462,11.6179,1.00373
1.77,0.253871,1.0123,10.624,9.63212,11.6153,1.00377
1.78,0.254015,1.0124,10.6214,9.62962,11.6126,1.0038
1.79,0.254169,1.01248,10.6189,9.62711,11.61,1.00383
1.8,0.254313,1.01253,10.6163,9.62459,11.6074,1.00385
1.81,0.254454,1.0126,10.6138,9.62209,11.6048,1.00387
1.82,0.254582,1.0127,10.6112,9.6196,11.6022,1.00391
1.83,0.254769,1.0128,10.6087,9.61711,11.5996,1.00396
1.84,0.254981,1.0129,10.6062,9.61462,11.597,1.00399
1.85,0.255184,1.013,10.6036,9.61213,11.5944,1.00402
1.86,0.255363,1.01308,10.601,9.60964,11.5918,1.00404
1.87,0.255545,1.01315,10.5985,9.60714,11.5892,1.00406
1.88,0.255712,1.01325,10.5959,9.60463,11.5866,1.0041
1.89,0.255885,1.01336,10.5934,9.60212,11.5839,1.00414
1.9,0.256051,1.01346,10.5908,9.59961,11.5813,1.00418
1.91,0.256188,1.01356,10.5883,9.5971,11.5786,1.0042
1.92,0.256219,1.01365,10.5857,9.5946,11.576,1.00423
1.93,0.256433,1.01374,10.5831,9.59209,11.5734,1.00424
1.94,0.256637,1.01384,10.5806,9.58957,11.5707,1.00428
1.95,0.256831,1.01396,10.578,9.58705,11.568,1.00432
1.96,0.257018,1.01407,10.5754,9.58453,11.5654,1.00436
1.97,0.257185,1.01417,10.5729,9.58201,11.5627,1.00438
1.98,0.257381,1.01427,10.5703,9.5795,11.5601,1.00441
1.99,0.25756,1.01436,10.5677,9.57698,11.5574,1.00442
2,0.257755,1.01448,10.5651,9.57445,11.5547,1.00445
2.01,0.257927,1.0146,10.5626,9.5719,11.552,1.00449
2.02,0.258111,1.01471,10.56,9.56934,11.5493,1.00453
2.03,0.258265,1.0148,10.5574,9.56679,11.5466,1.00456
2.04,0.258434,1.01488,10.5548,9.56423,11.5439,1.00458
2.05,0.258572,1.01495,10.5522,9.56168,11.5413,1.0046
2.06,0.258706,1.01505,10.5497,9.55914,11.5386,1.00463
2.07,0.258831,1.01517,10.5471,9.55659,11.5359,1.00467
2.08,0.258977,1.01529,10.5445,9.55405,11.5332,1.00471
2.09,0.259126,1.01539,10.5419,9.55151,11.5305,1.00475
2.1,0.259261,1.01549,10.5393,9.54898,11.5279,1.00477
2.11,0.259365,1.01558,10.5367,9.54645,11.5252,1.00479
2.12,0.259471,1.01569,10.5341,9.54391,11.5225,1.00482
2.13,0.2596,1.01581,10.5315,9.54137,11.5198,1.00486
2.14,0.259741,1.01593,10.5289,9.53883,11.5171,1.0049
2.15,0.259847,1.01604,10.5263,9.53629,11.5144,1.00494
2.16,0.259988,1.01615,10.5237,9.53377,11.5117,1.00496
2.17,0.260116,1.01626,10.5211,9.53125,11.5091,1.00498
2.18,0.260242,1.01637,10.5185,9.52872,11.5064,1.00501
2.19,0.260319,1.01651,10.5159,9.52619,11.5037,1.00505
2.2,0.260408,1.01664,10.5133,9.52367,11.5009,1.00509
2.21,0.260545,1.01677,10.5107,9.52116,11.4983,1.00512
2.22,0.260574,1.01691,10.5081,9.51865,11.4955,1.00515
2.23,0.260604,1.01705,10.5055,9.51615,11.4928,1.00517
2.24,0.260647,1.01718,10.5029,9.51366,11.4901,1.00519
2.25,0.260691,1.01731,10.5003,9.51114,11.4874,1.00524
2.26,0.260747,1.01741,10.4977,9.50861,11.4848,1.00528
2.27,0.260794,1.01749,10.4951,9.50607,11.4821,1.00531
2.28,0.260867,1.01755,10.4925,9.50352,11.4795,1.00534
2.29,0.260924,1.01761,10.4899,9.50095,11.4769,1.00536
2.3,0.260977,1.01768,10.4873,9.4984,11.4742,1.00538
2.31,0.261096,1.01779,10.4847,9.49587,11.4716,1.00543
2.32,0.261254,1.0179,10.482,9.49333,11.4689,1.00547
2.33,0.261418,1.01799,10.4794,9.4908,11.4663,1.0055
2.34,0.261604,1.01808,10.4768,9.48826,11.4636,1.00553
2.35,0.261753,1.01817,10.4742,9.48571,11.4609,1.00555
2.36,0.261891,1.01826,10.4716,9.48317,11.4582,1.00557
2.37,0.262056,1.01838,10.469,9.48061,11.4555,1.00562
2.38,0.262203,1.01849,10.4663,9.47804,11.4528,1.00566
2.39,0.262332,1.01859,10.4637,9.47548,11.4502,1.00569
2.4,0.26245,1.01869,10.4611,9.47292,11.4475,1.00572
2.41,0.262554,1.01879,10.4585,9.47036,11.4447,1.00574
2.42,0.26268,1.01889,10.4558,9.4678,11.442,1.00576
2.43,0.262811,1.01902,10.4532,9.46523,11.4393,1.00581
2.44,0.262963,1.01914,10.4506,9.46265,11.4366,1.00585
2.45,0.26312,1.01926,10.448,9.46008,11.4338,1.00588
2.46,0.263266,1.01938,10.4453,9.4575,11.4311,1.00591
2.47,0.263419,1.01949,10.4427,9.45493,11.4283,1.00593
2.48,0.263564,1.01961,10.4401,9.45236,11.4256,1.00595
2.49,0.263719,1.01975,10.4374,9.44977,11.4228,1.006
2.5,0.263861,1.01985,10.4348,9.44717,11.4201,1.00604
2.51,0.264,1.01995,10.4322,9.44456,11.4173,1.00607
2.52,0.26412,1.02004,10.4295,9.44195,11.4146,1.00609
2.53,0.264237,1.02013,10.4269,9.43934,11.4119,1.00611
2.54,0.264342,1.02023,10.4242,9.43673,11.4091,1.00614
2.55,0.26444,1.02035,10.4216,9.43414,11.4064,1.00619
2.56,0.264506,1.02047,10.4189,9.43154,11.4036,1.00623
2.57,0.264598,1.02057,10.4163,9.42894,11.4009,1.00626
2.58,0.264706,1.02068,10.4137,9.42634,11.3981,1.00629
2.59,0.264789,1.02079,10.411,9.42375,11.3954,1.00631
2.6,0.264871,1.0209,10.4084,9.42116,11.3926,1.00633
2.61,0.265002,1.02103,10.4057,9.41856,11.3899,1.00638
2.62,0.265118,1.02114,10.4031,9.41596,11.3871,1.00642
2.63,0.265214,1.02125,10.4004,9.41336,11.3844,1.00645
2.64,0.265307,1.02136,10.3978,9.41077,11.3816,1.00648
2.65,0.265407,1.02147,10.3951,9.40818,11.3789,1.0065
2.66,0.265467,1.02159,10.3925,9.4056,11.3761,1.00653
2.67,0.265544,1.02172,10.3898,9.40301,11.3734,1.00657
2.68,0.265633,1.02185,10.3871,9.40041,11.3706,1.00661
2.69,0.265719,1.02198,10.3845,9.39782,11.3678,1.00664
2.7,0.265797,1.0221,10.3818,9.39523,11.365,1.00667
2.71,0.265861,1.02222,10.3792,9.39265,11.3623,1.00668
2.72,0.265916,1.02233,10.3765,9.39007,11.3595,1.00671
2.73,0.26598,1.02244,10.3739,9.38748,11.3568,1.00675
2.74,0.266053,1.02253,10.3712,9.38487,11.3541,1.00679
2.75,0.266121,1.02262,10.3685,9.38225,11.3513,1.00682
2.76,0.266193,1.0227,10.3659,9.37962,11.3486,1.00684
2.77,0.266258,1.02277,10.3632,9.37698,11.3459,1.00686
2.78,0.266338,1.02284,10.3606,9.37433,11.3431,1.00689
2.79,0.266406,1.02295,10.3579,9.37171,11.3404,1.00693
2.8,0.266506,1.02305,10.3552,9.3691,11.3377,1.00697
2.81,0.266652,1.02315,10.3526,9.36649,11.3349,1.007
2.82,0.266767,1.02325,10.3499,9.36387,11.3322,1.00703
2.83,0.266866,1.02335,10.3472,9.36126,11.3294,1.00704
2.84,0.267002,1.02346,10.3446,9.35865,11.3266,1.00708
2.85,0.267118,1.02357,10.3419,9.35603,11.3239,1.00712
2.86,0.267221,1.02368,10.3392,9.3534,11.3211,1.00716
2.87,0.267274,1.02379,10.3365,9.35077,11.3183,1.00719
2.88,0.267351,1.02389,10.3339,9.34815,11.3156,1.00721
2.89,0.267409,1.02399,10.3312,9.34553,11.3128,1.00723
2.9,0.26752,1.02412,10.3285,9.34291,11.31,1.00727
2.91,0.267635,1.02425,10.3259,9.34028,11.3072,1.00731
2.92,0.267766,1.02437,10.3232,9.33764,11.3044,1.00734
2.93,0.267889,1.02449,10.3205,9.33501,11.3016,1.00737
2.94,0.268006,1.0246,10.3178,9.33238,11.2988,1.00739
2.95,0.268131,1.02469,10.3151,9.32975,11.296,1.00741
2.96,0.268253,1.02481,10.3125,9.32712,11.2932,1.00745
2.97,0.26837,1.02492,10.3098,9.32447,11.2905,1.00749
2.98,0.268472,1.02502,10.3071,9.32182,11.2877,1.00753
2.99,0.268568,1.02512,10.3044,9.31916,11.2849,1.00756
3,0.268657,1.02521,10.3017,9.31649,11.2821,1.00758
3.01,0.26872,1.02528,10.299,9.31383,11.2793,1.00759
3.02,0.26877,1.02539,10.2964,9.31117,11.2765,1.00764
3.03,0.268818,1.0255,10.2937,9.30852,11.2738,1.00768
3.04,0.26888,1.02561,10.291,9.30587,11.271,1.00771
3.05,0.26894,1.02572,10.2883,9.30322,11.2682,1.00774
3.06,0.269017,1.02582,10.2856,9.30058,11.2654,1.00776
3.07,0.269085,1.02591,10.2829,9.29794,11.2626,1.00778
3.08,0.269198,1.02604,10.2802,9.29531,11.2598,1.00783
3.09,0.26927,1.02616,10.2775,9.29266,11.257,1.00787
3.1,0.269331,1.02627,10.2748,9.29002,11.2542,1.0079
3.11,0.269364,1.02638,10.2721,9.28738,11.2514,1.00793
3.12,0.26943,1.02648,10.2695,9.28475,11.2486,1.00795
3.13,0.269469,1.02659,10.2668,9.28212,11.2458,1.00797
3.14,0.269507,1.02674,10.2641,9.2795,11.243,1.00801
3.15,0.269535,1.02687,10.2614,9.27687,11.2402,1.00805
3.16,0.269588,1.02699,10.2587,9.27425,11.2374,1.00808
3.17,0.269616,1.02709,10.256,9.27163,11.2347,1.00811
3.18,0.269661,1.02717,10.2533,9.26903,11.2319,1.00812
3.19,0.269709,1.02726,10.2506,9.26643,11.2292,1.00815
3.2,0.269763,1.02738,10.2479,9.26383,11.2265,1.00819
3.21,0.2698,1.02748,10.2452,9.26121,11.2237,1.00823
3.22,0.269848,1.02758,10.2425,9.25858,11.221,1.00826
3.23,0.269881,1.02766,10.2398,9.25594,11.2182,1.00828
3.24,0.269926,1.02773,10.2371,9.25328,11.2155,1.0083
3.25,0.269996,1.02781,10.2344,9.25062,11.2127,1.00833
3.26,0.270074,1.02791,10.2317,9.24797,11.2099,1.00837
3.27,0.270177,1.02803,10.229,9.24534,11.2072,1.00841
3.28,0.270272,1.02814,10.2263,9.2427,11.2044,1.00844
3.29,0.270384,1.02824,10.2236,9.24007,11.2016,1.00846
3.3,0.270491,1.02833,10.2209,9.23743,11.1988,1.00848
3.31,0.270598,1.02845,10.2182,9.23479,11.196,1.00852
3.32,0.270684,1.02857,10.2155,9.23214,11.1932,1.00856
3.33,0.270732,1.02869,10.2128,9.22948,11.1904,1.0086
3.34,0.270777,1.0288,10.2101,9.22682,11.1876,1.00862
3.35,0.270829,1.0289,10.2074,9.22416,11.1848,1.00865
3.36,0.270904,1.029,10.2047,9.2215,11.182,1.00866
3.37,0.270983,1.02914,10.2019,9.21885,11.1791,1.0087
3.38,0.271099,1.02928,10.1992,9.2162,11.1763,1.00874
3.39,0.27122,1.0294,10.1965,9.21353,11.1735,1.00878
3.4,0.271338,1.02951,10.1938,9.21086,11.1706,1.0088
3.41,0.27144,1.0296,10.1911,9.2082,11.1678,1.00882
3.42,0.27156,1.02969,10.1884,9.20553,11.165,1.00884
3.43,0.271663,1.02983,10.1857,9.20287,11.1622,1.00888
3.44,0.271757,1.02995,10.183,9.2002,11.1594,1.00892
3.45,0.271843,1.03006,10.1802,9.19751,11.1565,1.00896
3.46,0.271919,1.03015,10.1775,9.19482,11.1537,1.00898
3.47,0.27196,1.03023,10.1748,9.19212,11.1509,1.009
3.48,0.272011,1.03032,10.1721,9.18942,11.1481,1.00902
3.49,0.272063,1.03043,10.1694,9.18673,11.1452,1.00906
3.5,0.272112,1.03055,10.1666,9.18404,11.1424,1.0091
3.51,0.272155,1.03066,10.1639,9.18136,11.1396,1.00914
3.52,0.27221,1.03075,10.1612,9.17867,11.1368,1.00916
3.53,0.272278,1.03085,10.1585,9.17599,11.1339,1.00918
3.54,0.272338,1.03096,10.1558,9.17332,11.1311,1.0092
3.55,0.27241,1.03109,10.153,9.17065,11.1283,1.00925
3.56,0.272458,1.03121,10.1503,9.16796,11.1254,1.00929
3.57,0.272439,1.03131,10.1476,9.16528,11.1226,1.00932
3.58,0.272461,1.03143,10.1449,9.1626,11.1198,1.00934
3.59,0.27251,1.03154,10.1421,9.15993,11.1169,1.00935
3.6,0.272566,1.03166,10.1394,9.15726,11.1141,1.00938
3.61,0.272618,1.03179,10.1367,9.15459,11.1112,1.00942
3.62,0.27268,1.03189,10.134,9.15192,11.1084,1.00946
3.63,0.272744,1.03197,10.1312,9.14924,11.1057,1.00948
3.64,0.272814,1.03206,10.1285,9.14657,11.1029,1.0095
3.65,0.272645,1.03214,10.1258,9.14391,11.1001,1.00952
3.66,0.272739,1.03226,10.1231,9.14125,11.0973,1.00956
3.67,0.272842,1.03238,10.1203,9.1386,11.0945,1.0096
3.68,0.272908,1.03247,10.1176,9.13592,11.0917,1.00963
3.69,0.272991,1.03255,10.1149,9.13322,11.0889,1.00965
3.7,0.273052,1.03262,10.1121,9.13052,11.0861,1.00967
3.71,0.273148,1.03269,10.1094,9.1278,11.0832,1.00968
3.72,0.273223,1.03279,10.1067,9.12508,11.0804,1.00973
3.73,0.273276,1.03289,10.104,9.12238,11.0776,1.00976
3.74,0.273337,1.03299,10.1012,9.11968,11.0748,1.00979
