time,velocity,ratio,centerX,Xmax,Xmin,Ymax
0,0,1,3.5,2.5,4.5,1
0.01,0.0183053,1,3.49991,2.49991,4.4999,1
0.02,0.0342155,1.00001,3.49965,2.49965,4.49964,1
0.03,0.0481614,1.00002,3.49924,2.49924,4.49922,1
0.04,0.060466,1.00002,3.49869,2.49871,4.49867,1
0.05,0.0714447,1.00003,3.49804,2.49806,4.49801,1.00001
0.06,0.0812625,1.00004,3.49727,2.49731,4.49725,1.00001
0.07,0.090082,1.00005,3.49642,2.49647,4.4964,1.00001
0.08,0.0980492,1.00005,3.49548,2.49555,4.49546,1.00001
0.09,0.105272,1.00006,3.49446,2.49455,4.49446,1.00001
0.1,0.111845,1.00006,3.49338,2.49348,4.49338,1.00001
0.11,0.117857,1.00006,3.49223,2.49235,4.49224,1
0.12,0.123381,1.00007,3.49102,2.49117,4.49105,1.00002
0.13,0.128469,1.00009,3.48977,2.48993,4.4898,1.00003
0.14,0.133203,1.00011,3.48846,2.48864,4.48851,1.00005
0.15,0.137581,1.00012,3.48711,2.4873,4.48717,1.00006
0.16,0.141645,1.00014,3.48571,2.48592,4.48578,1.00007
0.17,0.145408,1.00015,3.48428,2.48451,4.48436,1.00008
0.18,0.14892,1.00016,3.48281,2.48305,4.48289,1.00008
0.19,0.152203,1.00018,3.4813,2.48156,4.48138,1.00008
0.2,0.155286,1.00019,3.47977,2.48003,4.47982,1.00008
0.21,0.158164,1.00021,3.4782,2.47848,4.47824,1.00009
0.22,0.160881,1.00023,3.47661,2.4769,4.47662,1.00009
0.23,0.163448,1.00028,3.47499,2.4753,4.47497,1.00012
0.24,0.165894,1.00032,3.47334,2.47367,4.47329,1.00013
0.25,0.16823,1.00036,3.47167,2.47202,4.47159,1.00015
0.26,0.170449,1.0004,3.46998,2.47036,4.46987,1.00016
0.27,0.17252,1.00044,3.46826,2.46867,4.46812,1.00017
0.28,0.174517,1.00049,3.46653,2.46697,4.46635,1.00018
0.29,0.176426,1.00052,3.46478,2.46524,4.46455,1.00018
0.3,0.178238,1.00056,3.46301,2.46349,4.46274,1.00019
0.31,0.179957,1.00059,3.46122,2.46172,4.46091,1.00019
0.32,0.181619,1.00065,3.45941,2.45994,4.45907,1.00021
0.33,0.183225,1.0007,3.45759,2.45815,4.4572,1.00022
0.34,0.184792,1.00074,3.45575,2.45634,4.45533,1.00024
0.35,0.186293,1.00079,3.45389,2.45451,4.45344,1.00025
0.36,0.187718,1.00083,3.45202,2.45267,4.45154,1.00026
0.37,0.189068,1.00087,3.45014,2.45081,4.44962,1.00027
0.38,0.19039,1.0009,3.44824,2.44894,4.44769,1.00027
0.39,0.191637,1.00093,3.44633,2.44705,4.44574,1.00027
0.4,0.192833,1.00096,3.44441,2.44514,4.44379,1.00028
0.41,0.194004,1.001,3.44248,2.44322,4.44182,1.0003
0.42,0.195155,1.00104,3.44054,2.44129,4.43985,1.00032
0.43,0.196273,1.00107,3.43858,2.43935,4.43788,1.00034
0.44,0.19735,1.00111,3.43661,2.43739,4.43587,1.00035
0.45,0.19837,1.00115,3.43463,2.43544,4.43386,1.00036
0.46,0.199345,1.00117,3.43265,2.43347,4.43185,1.00036
0.47,0.20029,1.00119,3.43065,2.4315,4.42984,1.00036
0.48,0.201218,1.00122,3.42864,2.42951,4.42782,1.00037
0.49,0.202138,1.00125,3.42663,2.42751,4.42579,1.00039
0.5,0.20307,1.00128,3.4246,2.4255,4.42376,1.00041
0.51,0.203943,1.00131,3.42257,2.42349,4.42173,1.00043
0.52,0.204793,1.00134,3.42053,2.42148,4.41967,1.00044
0.53,0.205595,1.00137,3.41847,2.41945,4.4176,1.00044
0.54,0.206373,1.00139,3.41642,2.4174,4.41553,1.00045
0.55,0.207111,1.0014,3.41435,2.41535,4.41344,1.00044
0.56,0.207844,1.00144,3.41227,2.41329,4.41135,1.00046
0.57,0.208582,1.00147,3.41019,2.41123,4.40925,1.00048
0.58,0.209332,1.00151,3.4081,2.40916,4.40714,1.0005
0.59,0.210008,1.00154,3.40601,2.40709,4.40503,1.00051
0.6,0.210678,1.00157,3.40391,2.40501,4.40291,1.00052
0.61,0.211323,1.00159,3.4018,2.40293,4.40078,1.00052
0.62,0.211947,1.00161,3.39968,2.40084,4.39864,1.00051
0.63,0.212553,1.00164,3.39756,2.39874,4.39651,1.00052
0.64,0.213173,1.00168,3.39543,2.39665,4.39436,1.00054
0.65,0.213804,1.00172,3.3933,2.39455,4.39222,1.00055
0.66,0.214413,1.00175,3.39116,2.39245,4.39007,1.00056
0.67,0.214989,1.00179,3.38901,2.39034,4.38791,1.00057
0.68,0.215542,1.00181,3.38686,2.38823,4.38574,1.00057
0.69,0.216085,1.00183,3.3847,2.3861,4.38356,1.00056
0.7,0.216567,1.00185,3.38254,2.38396,4.38138,1.00056
0.71,0.217059,1.00188,3.38037,2.38181,4.3792,1.00058
0.72,0.217558,1.00191,3.3782,2.37965,4.37702,1.00059
0.73,0.218062,1.00192,3.37602,2.37748,4.37485,1.00061
0.74,0.21855,1.00195,3.37384,2.3753,4.37263,1.00061
0.75,0.219016,1.00197,3.37165,2.37315,4.37043,1.00061
0.76,0.219444,1.00198,3.36946,2.37097,4.36825,1.00061
0.77,0.219876,1.00197,3.36727,2.36879,4.36606,1.0006
0.78,0.220316,1.00199,3.36507,2.36661,4.36388,1.00063
0.79,0.220842,1.00201,3.36286,2.36441,4.36169,1.00064
0.8,0.221332,1.00201,3.36065,2.36221,4.3595,1.00066
0.81,0.221815,1.00202,3.35844,2.36001,4.3573,1.00066
0.82,0.222268,1.00203,3.35622,2.35779,4.35507,1.00067
0.83,0.222705,1.00203,3.35399,2.35557,4.35284,1.00066
0.84,0.223112,1.00203,3.35176,2.35334,4.35059,1.00066
0.85,0.223536,1.00206,3.34953,2.35111,4.34834,1.00068
0.86,0.223968,1.00209,3.3473,2.34888,4.34609,1.00069
0.87,0.224411,1.00211,3.34505,2.34664,4.34383,1.0007
0.88,0.224792,1.00214,3.34281,2.34441,4.34156,1.00071
0.89,0.225213,1.00216,3.34056,2.34218,4.33929,1.00071
0.9,0.225593,1.00217,3.33831,2.33993,4.33701,1.0007
0.91,0.225969,1.00218,3.33605,2.33769,4.33472,1.00069
0.92,0.226341,1.00221,3.33379,2.33544,4.33244,1.00071
0.93,0.226762,1.00224,3.33152,2.33319,4.33016,1.00072
0.94,0.227151,1.00227,3.32926,2.33094,4.32787,1.00073
0.95,0.227547,1.00229,3.32698,2.32868,4.32558,1.00074
0.96,0.227904,1.00231,3.32471,2.32642,4.32328,1.00074
0.97,0.228256,1.00232,3.32243,2.32415,4.32097,1.00073
0.98,0.228569,1.00232,3.32014,2.32187,4.31867,1.00072
0.99,0.228921,1.00235,3.31786,2.31959,4.31637,1.00074
1,0.229261,1.00237,3.31557,2.3173,4.31406,1.00075
1.01,0.229619,1.00239,3.31327,2.315,4.31175,1.00076
1.02,0.229949,1.00241,3.31098,2.31271,4.30943,1.00077
1.03,0.230271,1.00242,3.30867,2.31042,4.30711,1.00076
1.04,0.230542,1.00242,3.30637,2.30813,4.3048,1.00076
1.05,0.230843,1.00243,3.30407,2.30583,4.30249,1.00076
1.06,0.231132,1.00245,3.30176,2.30353,4.30019,1.00078
1.07,0.231467,1.00246,3.29944,2.30122,4.29788,1.00079
1.08,0.231758,1.00248,3.29713,2.29892,4.29557,1.0008
1.09,0.232073,1.0025,3.29481,2.29662,4.29325,1.00081
1.1,0.232338,1.00251,3.29249,2.29431,4.29092,1.00081
1.11,0.232573,1.00251,3.29016,2.29199,4.28858,1.0008
1.12,0.232811,1.00253,3.28784,2.28967,4.28625,1.00081
1.13,0.233098,1.00255,3.28551,2.28735,4.28391,1.00083
1.14,0.233379,1.00258,3.28318,2.28504,4.28157,1.00084
1.15,0.233619,1.0026,3.28084,2.28272,4.27922,1.00085
1.16,0.233844,1.00263,3.27851,2.28041,4.27687,1.00085
1.17,0.234082,1.00264,3.27617,2.27809,4.27452,1.00085
1.18,0.234271,1.00265,3.27383,2.27577,4.27216,1.00084
1.19,0.234496,1.00268,3.27148,2.27345,4.26981,1.00086
1.2,0.234733,1.00272,3.26914,2.27114,4.26746,1.00088
1.21,0.234979,1.00275,3.26679,2.26883,4.2651,1.00089
1.22,0.235196,1.00279,3.26444,2.26652,4.26274,1.00089
1.23,0.235401,1.00282,3.26209,2.26421,4.26037,1.00089
1.24,0.235578,1.00284,3.25973,2.26189,4.258,1.00089
1.25,0.235727,1.00286,3.25738,2.25957,4.25563,1.00088
1.26,0.23589,1.00289,3.25502,2.25723,4.25326,1.0009
1.27,0.23607,1.00292,3.25266,2.25489,4.2509,1.00092
1.28,0.236258,1.00294,3.2503,2.25254,4.24852,1.00093
1.29,0.236421,1.00296,3.24794,2.25018,4.24613,1.00093
1.3,0.236573,1.00298,3.24557,2.24786,4.24377,1.00093
1.31,0.236714,1.00298,3.24321,2.24552,4.24142,1.00092
1.32,0.236875,1.00298,3.24084,2.24317,4.23908,1.00093
1.33,0.237077,1.00299,3.23847,2.24081,4.23674,1.00095
1.34,0.237303,1.003,3.2361,2.23845,4.23441,1.00097
1.35,0.237525,1.003,3.23373,2.23608,4.23205,1.00098
1.36,0.237753,1.00301,3.23135,2.23371,4.22967,1.00098
1.37,0.237942,1.00301,3.22897,2.23133,4.22729,1.00098
1.38,0.238127,1.003,3.22659,2.22895,4.22489,1.00097
1.39,0.238305,1.00303,3.22421,2.22657,4.22249,1.00099
1.4,0.238529,1.00306,3.22183,2.22418,4.22009,1.00101
1.41,0.238718,1.00309,3.21944,2.2218,4.21768,1.00102
1.42,0.238904,1.00311,3.21706,2.21943,4.21526,1.00102
1.43,0.239094,1.00313,3.21467,2.21705,4.21284,1.00102
1.44,0.239287,1.00314,3.21228,2.21467,4.21042,1.00101
1.45,0.239449,1.00317,3.20988,2.21229,4.208,1.00102
1.46,0.239672,1.00321,3.20749,2.2099,4.20558,1.00104
1.47,0.239874,1.00324,3.20509,2.20752,4.20316,1.00105
1.48,0.240094,1.00326,3.20269,2.20514,4.20074,1.00106
1.49,0.240269,1.00329,3.20029,2.20275,4.19831,1.00106
1.5,0.240445,1.0033,3.19789,2.20036,4.19588,1.00105
1.51,0.240582,1.0033,3.19548,2.19797,4.19345,1.00104
1.52,0.240763,1.00334,3.19308,2.19556,4.19102,1.00106
1.53,0.240927,1.00336,3.19067,2.19316,4.1886,1.00108
1.54,0.241119,1.00339,3.18826,2.19075,4.18617,1.00109
1.55,0.241284,1.00341,3.18585,2.18834,4.18373,1.00109
1.56,0.241448,1.00342,3.18344,2.18594,4.1813,1.00109
1.57,0.241557,1.00342,3.18102,2.18353,4.17887,1.00108
1.58,0.241701,1.00344,3.17861,2.18113,4.17645,1.00109
1.59,0.241827,1.00346,3.17619,2.17872,4.17404,1.00111
1.6,0.241987,1.00348,3.17377,2.17631,4.17163,1.00113
1.61,0.242133,1.0035,3.17135,2.17391,4.1692,1.00114
1.62,0.242296,1.00351,3.16893,2.1715,4.16677,1.00114
1.63,0.242413,1.00352,3.16651,2.16909,4.16433,1.00114
1.64,0.242522,1.00353,3.16408,2.16668,4.1619,1.00113
1.65,0.242622,1.00356,3.16166,2.16426,4.15946,1.00115
1.66,0.24277,1.00359,3.15923,2.16184,4.15702,1.00117
1.67,0.242872,1.00362,3.15681,2.15943,4.15458,1.00118
1.68,0.242981,1.00364,3.15438,2.15702,4.15214,1.00119
1.69,0.243089,1.00366,3.15195,2.15462,4.14969,1.00119
1.7,0.243183,1.00367,3.14952,2.1522,4.14725,1.00118
1.71,0.243259,1.00369,3.14709,2.14979,4.1448,1.00119
1.72,0.243386,1.00373,3.14465,2.14739,4.14236,1.00121
1.73,0.243501,1.00376,3.14222,2.14499,4.13993,1.00122
1.74,0.24362,1.00379,3.13978,2.14259,4.13748,1.00122
1.75,0.24371,1.00382,3.13735,2.14019,4.13503,1.00122
1.76,0.243751,1.00384,3.13491,2.13779,4.13257,1.00122
1.77,0.243775,1.00385,3.13247,2.13538,4.13013,1.00121
1.78,0.243825,1.00388,3.13004,2.13296,4.12768,1.00123
1.79,0.243887,1.0039,3.1276,2.13053,4.12525,1.00124
1.8,0.243964,1.00392,3.12516,2.1281,4.12278,1.00125
1.81,0.244037,1.00393,3.12272,2.12567,4.12034,1.00125
1.82,0.244093,1.00393,3.12028,2.12325,4.1179,1.00125
1.83,0.244126,1.00393,3.11784,2.12083,4.11548,1.00124
1.84,0.244178,1.00394,3.1154,2.1184,4.11306,1.00125
1.85,0.244258,1.00395,3.11296,2.11597,4.11064,1.00127
1.86,0.24437,1.00396,3.11052,2.11354,4.10822,1.00128
1.87,0.244504,1.00396,3.10807,2.1111,4.10578,1.00129
1.88,0.244608,1.00397,3.10563,2.10867,4.10333,1.00129
1.89,0.244704,1.00397,3.10318,2.10622,4.10087,1.00128
1.9,0.244763,1.00398,3.10074,2.10377,4.09841,1.00128
1.91,0.244865,1.004,3.09829,2.10132,4.09595,1.0013
1.92,0.244964,1.00402,3.09584,2.09888,4.09349,1.00132
1.93,0.245053,1.00404,3.09339,2.09643,4.09101,1.00132
1.94,0.245119,1.00406,3.09094,2.094,4.08854,1.00132
1.95,0.245225,1.00407,3.08849,2.09156,4.08606,1.00132
1.96,0.245281,1.00408,3.08604,2.08911,4.08359,1.00131
1.97,0.245383,1.00412,3.08358,2.08667,4.08112,1.00133
1.98,0.245486,1.00414,3.08113,2.08423,4.07865,1.00134
1.99,0.245618,1.00417,3.07868,2.08179,4.07617,1.00135
2,0.245713,1.00419,3.07622,2.07935,4.0737,1.00135
2.01,0.245802,1.0042,3.07376,2.07691,4.07122,1.00134
2.02,0.245845,1.0042,3.07131,2.07446,4.06874,1.00133
2.03,0.245937,1.00422,3.06885,2.072,4.06627,1.00134
2.04,0.24601,1.00424,3.06639,2.06954,4.0638,1.00136
2.05,0.246119,1.00426,3.06393,2.06708,4.06132,1.00137
2.06,0.246207,1.00427,3.06147,2.06462,4.05883,1.00137
2.07,0.246299,1.00428,3.05901,2.06215,4.05636,1.00137
2.08,0.246342,1.00428,3.05654,2.0597,4.05389,1.00136
2.09,0.246401,1.00428,3.05408,2.05725,4.05143,1.00136
2.1,0.245825,1.0043,3.05162,2.05479,4.04897,1.00138
2.11,0.246565,1.00432,3.04916,2.05234,4.04652,1.0014
2.12,0.246964,1.00434,3.04669,2.04989,4.04405,1.00141
2.13,0.247285,1.00436,3.04422,2.04743,4.04156,1.00141
2.14,0.247517,1.00438,3.04175,2.04498,4.03908,1.00141
2.15,0.247709,1.00438,3.03927,2.04251,4.03659,1.0014
2.16,0.247862,1.00442,3.0368,2.04005,4.0341,1.00143
2.17,0.248042,1.00445,3.03432,2.03758,4.03161,1.00145
2.18,0.248159,1.00448,3.03184,2.03512,4.02911,1.00146
2.19,0.248258,1.0045,3.02935,2.03266,4.02661,1.00147
2.2,0.248341,1.00453,3.02687,2.0302,4.02411,1.00147
2.21,0.248408,1.00454,3.02439,2.02774,4.02161,1.00146
2.22,0.248439,1.00457,3.02191,2.02528,4.01912,1.00148
2.23,0.248514,1.00461,3.01942,2.02283,4.01662,1.00149
2.24,0.248569,1.00465,3.01694,2.02038,4.01413,1.00151
2.25,0.248625,1.00469,3.01445,2.01794,4.01163,1.00151
2.26,0.248632,1.00472,3.01197,2.01551,4.00912,1.00151
2.27,0.248609,1.00475,3.00948,2.01307,4.00662,1.00151
2.28,0.248574,1.00477,3.007,2.01062,4.00412,1.00151
2.29,0.248557,1.00481,3.00451,2.00816,4.00163,1.00153
2.3,0.248616,1.00484,3.00203,2.00569,3.99913,1.00155
2.31,0.248585,1.00487,2.99954,2.00322,3.99661,1.00155
2.32,0.24854,1.00488,2.99706,2.00074,3.99412,1.00156
2.33,0.248372,1.00489,2.99457,1.99829,3.99165,1.00155
2.34,0.24831,1.00489,2.99209,1.99584,3.98919,1.00155
2.35,0.248271,1.00491,2.98961,1.99339,3.98674,1.00157
2.36,0.248259,1.00492,2.98712,1.99092,3.98429,1.00159
2.37,0.248302,1.00493,2.98464,1.98844,3.98182,1.0016
2.38,0.248363,1.00493,2.98216,1.98597,3.97934,1.0016
2.39,0.248399,1.00494,2.97968,1.98349,3.97685,1.0016
2.4,0.248418,1.00493,2.97719,1.981,3.97435,1.00159
2.41,0.248432,1.00496,2.97471,1.97851,3.97185,1.00161
2.42,0.248483,1.00498,2.97223,1.97602,3.96935,1.00163
2.43,0.248512,1.005,2.96974,1.97353,3.96685,1.00164
2.44,0.248537,1.00502,2.96726,1.97105,3.96433,1.00164
2.45,0.248564,1.00503,2.96477,1.96857,3.96182,1.00164
2.46,0.248599,1.00504,2.96229,1.96609,3.95931,1.00163
2.47,0.248631,1.00506,2.9598,1.96361,3.9568,1.00164
2.48,0.248684,1.00509,2.95732,1.96113,3.95429,1.00166
2.49,0.248757,1.00512,2.95483,1.95865,3.95179,1.00167
2.5,0.248828,1.00514,2.95234,1.95617,3.94927,1.00167
2.51,0.248862,1.00515,2.94986,1.9537,3.94676,1.00167
2.52,0.248871,1.00516,2.94737,1.95122,3.94425,1.00166
2.53,0.248894,1.00517,2.94488,1.94873,3.94174,1.00165
2.54,0.248927,1.00519,2.94239,1.94624,3.93924,1.00167
2.55,0.248956,1.0052,2.9399,1.94375,3.93674,1.00168
2.56,0.249001,1.00522,2.93741,1.94125,3.93422,1.00168
2.57,0.249039,1.00522,2.93492,1.93876,3.93171,1.00168
2.58,0.249053,1.00522,2.93243,1.93627,3.92921,1.00168
2.59,0.249058,1.00521,2.92994,1.93378,3.92672,1.00167
2.6,0.249065,1.00524,2.92745,1.9313,3.92423,1.00169
2.61,0.249063,1.00525,2.92496,1.92881,3.92175,1.0017
2.62,0.249088,1.00526,2.92247,1.92632,3.91926,1.00171
2.63,0.249133,1.00528,2.91998,1.92384,3.91676,1.00172
2.64,0.249155,1.00529,2.91749,1.92137,3.91426,1.00172
2.65,0.249147,1.00529,2.915,1.91888,3.91176,1.00171
2.66,0.249131,1.00531,2.91251,1.9164,3.90926,1.00172
2.67,0.249137,1.00534,2.91002,1.91391,3.90676,1.00174
2.68,0.249134,1.00536,2.90753,1.91143,3.90426,1.00176
2.69,0.24912,1.00538,2.90504,1.90895,3.90175,1.00176
2.7,0.249111,1.0054,2.90255,1.90648,3.89924,1.00176
2.71,0.249099,1.00541,2.90006,1.90401,3.89674,1.00175
2.72,0.24907,1.00542,2.89757,1.90153,3.89424,1.00176
2.73,0.249068,1.00545,2.89508,1.89906,3.89175,1.00178
2.74,0.249074,1.00548,2.89259,1.8966,3.88925,1.00179
2.75,0.249093,1.00551,2.8901,1.89414,3.88675,1.0018
2.76,0.249058,1.00554,2.88761,1.89169,3.88424,1.00179
2.77,0.249001,1.00556,2.88512,1.88924,3.88174,1.00179
2.78,0.248923,1.00557,2.88263,1.88678,3.87924,1.00178
2.79,0.248885,1.0056,2.88014,1.88431,3.87674,1.0018
2.8,0.248843,1.00563,2.87765,1.88183,3.87425,1.00181
2.81,0.248828,1.00565,2.87517,1.87935,3.87174,1.00182
2.82,0.248793,1.00566,2.87268,1.87687,3.86925,1.00182
2.83,0.248757,1.00565,2.87019,1.87439,3.86677,1.00182
2.84,0.248696,1.00564,2.86771,1.87193,3.8643,1.00181
2.85,0.248654,1.00566,2.86522,1.86946,3.86183,1.00183
2.86,0.248593,1.00567,2.86273,1.86699,3.85937,1.00184
2.87,0.248627,1.00568,2.86025,1.86451,3.85689,1.00185
2.88,0.248683,1.00569,2.85776,1.86203,3.8544,1.00186
2.89,0.248718,1.0057,2.85528,1.85955,3.85191,1.00185
2.9,0.248719,1.0057,2.85279,1.85707,3.84941,1.00185
2.91,0.248715,1.00571,2.8503,1.85458,3.84691,1.00186
2.92,0.248726,1.00573,2.84782,1.85209,3.84441,1.00187
2.93,0.248735,1.00575,2.84533,1.8496,3.8419,1.00188
2.94,0.248728,1.00577,2.84284,1.84712,3.83939,1.00189
2.95,0.248725,1.00579,2.84036,1.84464,3.83688,1.00189
2.96,0.248714,1.0058,2.83787,1.84216,3.83437,1.00188
2.97,0.248706,1.00581,2.83538,1.83968,3.83187,1.00188
2.98,0.24871,1.00584,2.8329,1.83721,3.82937,1.0019
2.99,0.248743,1.00586,2.83041,1.83473,3.82687,1.00191
3,0.248779,1.00588,2.82792,1.83225,3.82436,1.00191
3.01,0.248787,1.0059,2.82544,1.82978,3.82185,1.00191
3.02,0.248754,1.00591,2.82295,1.82731,3.81935,1.0019
3.03,0.248734,1.00591,2.82046,1.82483,3.81684,1.00189
3.04,0.248739,1.00593,2.81798,1.82234,3.81434,1.00191
3.05,0.248748,1.00595,2.81549,1.81985,3.81185,1.00192
3.06,0.248767,1.00597,2.813,1.81736,3.80933,1.00193
3.07,0.24876,1.00597,2.81052,1.81487,3.80683,1.00193
3.08,0.248755,1.00597,2.80803,1.81238,3.80434,1.00192
3.09,0.248731,1.00596,2.80554,1.8099,3.80186,1.00191
3.1,0.248704,1.00598,2.80306,1.80742,3.79938,1.00193
3.11,0.248663,1.00599,2.80057,1.80494,3.7969,1.00194
3.12,0.248631,1.006,2.79808,1.80246,3.79442,1.00196
3.13,0.248648,1.00602,2.7956,1.79998,3.79192,1.00196
3.14,0.248643,1.00603,2.79311,1.79751,3.78943,1.00196
3.15,0.248608,1.00603,2.79063,1.79504,3.78694,1.00195
3.16,0.248559,1.00604,2.78814,1.79256,3.78444,1.00196
3.17,0.248529,1.00607,2.78566,1.79008,3.78195,1.00198
3.18,0.248497,1.00609,2.78317,1.7876,3.77946,1.00199
3.19,0.248449,1.00611,2.78069,1.78513,3.77696,1.002
3.2,0.248399,1.00612,2.77821,1.78266,3.77446,1.002
3.21,0.248356,1.00613,2.77572,1.7802,3.77197,1.00199
3.22,0.248293,1.00614,2.77324,1.77773,3.76948,1.00199
3.23,0.248243,1.00617,2.77076,1.77527,3.76699,1.00201
3.24,0.248214,1.0062,2.76828,1.77282,3.76451,1.00202
3.25,0.248199,1.00623,2.7658,1.77037,3.76201,1.00203
3.26,0.248141,1.00626,2.76331,1.76793,3.75952,1.00203
3.27,0.248054,1.00629,2.76083,1.76549,3.75703,1.00202
3.28,0.247924,1.0063,2.75836,1.76305,3.75454,1.00201
3.29,0.247852,1.00633,2.75588,1.76061,3.75205,1.00203
3.3,0.247773,1.00636,2.7534,1.75815,3.74957,1.00205
3.31,0.247699,1.00639,2.75092,1.75569,3.74706,1.00205
3.32,0.247613,1.00641,2.74845,1.75322,3.74458,1.00206
3.33,0.247531,1.0064,2.74597,1.75075,3.74212,1.00205
3.34,0.24743,1.00639,2.7435,1.74831,3.73967,1.00205
3.35,0.24737,1.0064,2.74102,1.74586,3.73722,1.00206
3.36,0.247279,1.00641,2.73855,1.7434,3.73478,1.00207
3.37,0.247236,1.00642,2.73608,1.74094,3.73233,1.00209
3.38,0.247256,1.00643,2.73361,1.73847,3.72986,1.00209
3.39,0.247246,1.00643,2.73114,1.73601,3.72738,1.00209
3.4,0.247242,1.00643,2.72866,1.73354,3.7249,1.00209
3.41,0.247216,1.00644,2.72619,1.73106,3.72241,1.00209
3.42,0.247184,1.00646,2.72372,1.72858,3.71992,1.00211
3.43,0.247179,1.00648,2.72125,1.7261,3.71744,1.00212
3.44,0.247142,1.0065,2.71878,1.72363,3.71494,1.00213
3.45,0.247113,1.00652,2.71631,1.72117,3.71244,1.00213
3.46,0.247066,1.00653,2.71384,1.7187,3.70994,1.00212
3.47,0.247038,1.00654,2.71137,1.71624,3.70745,1.00211
3.48,0.247022,1.00657,2.7089,1.71378,3.70496,1.00213
3.49,0.247026,1.0066,2.70643,1.71132,3.70247,1.00215
3.5,0.24704,1.00662,2.70396,1.70886,3.69998,1.00216
3.51,0.247048,1.00664,2.70149,1.7064,3.69748,1.00216
3.52,0.246993,1.00666,2.69902,1.70395,3.69499,1.00215
3.53,0.246946,1.00666,2.69655,1.70149,3.69251,1.00214
3.54,0.24692,1.00668,2.69408,1.69903,3.69002,1.00215
3.55,0.246907,1.0067,2.69162,1.69656,3.68754,1.00216
3.56,0.246899,1.00673,2.68915,1.69409,3.68504,1.00217
3.57,0.246898,1.00674,2.68668,1.69162,3.68256,1.00218
3.58,0.246878,1.00674,2.68421,1.68914,3.68008,1.00218
3.59,0.246835,1.00673,2.68174,1.68668,3.67761,1.00217
3.6,0.246785,1.00674,2.67928,1.68422,3.67514,1.00217
3.61,0.246726,1.00676,2.67681,1.68176,3.67268,1.00219
3.62,0.246654,1.00677,2.67434,1.6793,3.67022,1.0022
3.63,0.246621,1.00679,2.67188,1.67684,3.66775,1.00221
3.64,0.246602,1.0068,2.66941,1.67438,3.66527,1.00221
3.65,0.246565,1.00681,2.66695,1.67193,3.6628,1.00221
3.66,0.246487,1.00681,2.66448,1.66948,3.66033,1.0022
3.67,0.246426,1.00684,2.66202,1.66702,3.65785,1.00222
3.68,0.246363,1.00686,2.65955,1.66456,3.65538,1.00224
3.69,0.246302,1.00689,2.65709,1.66211,3.65291,1.00225
3.7,0.246226,1.0069,2.65463,1.65966,3.65043,1.00226
3.71,0.246171,1.00692,2.65217,1.65722,3.64796,1.00225
3.72,0.246087,1.00692,2.64971,1.65478,3.64549,1.00224
3.73,0.246024,1.00695,2.64725,1.65234,3.64302,1.00226
3.74,0.245956,1.00698,2.64479,1.6499,3.64056,1.00227
