time,velocity,ratio,centerX,Xmax,Xmin,Ymax
0,0,0.999999,1.1,0.1,2.1,0.999999
0.01,0.0139903,1.00002,1.09993,0.0999739,2.09994,1.00001
0.02,0.0256906,1.00016,1.09974,0.0999569,2.09971,1.00003
0.03,0.0356386,1.00037,1.09944,0.0999328,2.09935,1.00008
0.04,0.0441968,1.00065,1.09905,0.0999033,2.09888,1.00013
0.05,0.0516524,1.00099,1.09857,0.0998696,2.0983,1.0002
0.06,0.0581558,1.00139,1.09803,0.0998323,2.09764,1.00029
0.07,0.0638323,1.00184,1.09742,0.0997922,2.09689,1.00039
0.08,0.0688532,1.00234,1.09676,0.0997498,2.09608,1.0005
0.09,0.0732943,1.00288,1.09606,0.0997056,2.0952,1.00062
0.1,0.0772346,1.00346,1.09531,0.0996598,2.09427,1.00076
0.11,0.0807287,1.00408,1.09452,0.0996128,2.09329,1.0009
0.12,0.0838414,1.00472,1.0937,0.0995648,2.09227,1.00106
0.13,0.086628,1.00541,1.09285,0.099516,2.0912,1.00122
0.14,0.0891281,1.00612,1.09197,0.0994665,2.09008,1.0014
0.15,0.0913846,1.00686,1.09107,0.0994165,2.08893,1.00158
0.16,0.0934125,1.00762,1.09015,0.0993661,2.08773,1.00176
0.17,0.0952415,1.00843,1.08921,0.0993154,2.08651,1.00197
0.18,0.0968874,1.00927,1.08825,0.0992645,2.08525,1.0022
0.19,0.098375,1.01013,1.08728,0.0992134,2.08396,1.00243
0.2,0.0997216,1.01101,1.08629,0.0991622,2.08264,1.00266
0.21,0.100958,1.01192,1.08529,0.0991109,2.0813,1.0029
0.22,0.101773,1.01284,1.08427,0.0990597,2.07994,1.00315
0.23,0.102874,1.01377,1.08325,0.0990085,2.07856,1.00341
0.24,0.103872,1.01471,1.08222,0.0989575,2.07718,1.00366
0.25,0.104789,1.01567,1.08118,0.0989065,2.07578,1.00393
0.26,0.105614,1.01665,1.08013,0.0988556,2.07435,1.00419
0.27,0.106372,1.01764,1.07907,0.0988048,2.07291,1.00446
0.28,0.107028,1.01866,1.078,0.0987542,2.07144,1.00475
0.29,0.10763,1.01971,1.07693,0.0987037,2.06996,1.00505
0.3,0.108167,1.02077,1.07585,0.0986534,2.06846,1.00536
0.31,0.108664,1.02184,1.07477,0.0986033,2.06694,1.00566
0.32,0.109108,1.02292,1.07368,0.0985534,2.06541,1.00597
0.33,0.10952,1.02402,1.07259,0.0985036,2.06387,1.00629
0.34,0.109893,1.02511,1.07149,0.0984541,2.06234,1.0066
0.35,0.110233,1.02622,1.07039,0.0984048,2.06078,1.00692
0.36,0.110538,1.02735,1.06929,0.0983558,2.05921,1.00724
0.37,0.110812,1.02848,1.06819,0.0983069,2.05762,1.00756
0.38,0.111058,1.02965,1.06708,0.0982583,2.05602,1.0079
0.39,0.111277,1.03083,1.06597,0.09821,2.05441,1.00825
0.4,0.111471,1.03201,1.06485,0.0981619,2.0528,1.0086
0.41,0.111646,1.0332,1.06374,0.098114,2.05118,1.00896
0.42,0.111801,1.0344,1.06262,0.0980665,2.04955,1.00931
0.43,0.111935,1.0356,1.06151,0.0980192,2.04793,1.00967
0.44,0.11205,1.0368,1.06039,0.0979721,2.04632,1.01003
0.45,0.112148,1.03801,1.05927,0.0979252,2.0447,1.01039
0.46,0.112227,1.03922,1.05815,0.0978786,2.04308,1.01075
0.47,0.112291,1.04044,1.05702,0.0978322,2.04145,1.01111
0.48,0.112338,1.04168,1.0559,0.0977861,2.0398,1.01148
0.49,0.112373,1.04294,1.05478,0.0977403,2.03815,1.01187
0.5,0.112393,1.04421,1.05366,0.0976947,2.0365,1.01226
0.51,0.112394,1.04548,1.05253,0.0976493,2.03483,1.01264
0.52,0.112383,1.04676,1.05141,0.0976042,2.03316,1.01303
0.53,0.112367,1.04804,1.05029,0.0975593,2.03149,1.01342
0.54,0.112321,1.04932,1.04917,0.0975143,2.02983,1.01381
0.55,0.112258,1.0506,1.04804,0.0974695,2.02817,1.0142
0.56,0.112188,1.05189,1.04692,0.0974249,2.02649,1.01459
0.57,0.112107,1.05319,1.0458,0.0973805,2.02481,1.01498
0.58,0.112018,1.0545,1.04468,0.0973364,2.02313,1.01537
0.59,0.111925,1.05583,1.04356,0.0972926,2.02144,1.01579
0.6,0.111828,1.05716,1.04245,0.097249,2.01974,1.01619
0.61,0.11173,1.0585,1.04133,0.0972057,2.01804,1.0166
0.62,0.111626,1.05984,1.04021,0.0971626,2.01634,1.01701
0.63,0.111515,1.06117,1.0391,0.0971198,2.01465,1.01741
0.64,0.111389,1.06251,1.03798,0.0970772,2.01296,1.01782
0.65,0.111269,1.06385,1.03687,0.0970349,2.01126,1.01823
0.66,0.111137,1.0652,1.03576,0.0969928,2.00956,1.01863
0.67,0.111021,1.06655,1.03465,0.096951,2.00785,1.01904
0.68,0.11088,1.06791,1.03354,0.0969095,2.00614,1.01944
0.69,0.110742,1.06929,1.03244,0.0968681,2.00443,1.01987
0.7,0.110578,1.07068,1.03133,0.0968271,2.00271,1.0203
0.71,0.110422,1.07207,1.03023,0.0967862,2.00099,1.02072
0.72,0.110263,1.07346,1.02912,0.0967456,1.99929,1.02115
0.73,0.110131,1.07485,1.02802,0.0967053,1.99757,1.02158
0.74,0.109932,1.07626,1.02692,0.0966652,1.99583,1.022
0.75,0.109744,1.07767,1.02582,0.0966253,1.9941,1.02242
0.76,0.109548,1.07907,1.02473,0.0965856,1.99238,1.02285
0.77,0.109361,1.08047,1.02363,0.0965462,1.99066,1.02327
0.78,0.109168,1.08186,1.02254,0.0965071,1.98896,1.02369
0.79,0.108991,1.08326,1.02145,0.0964682,1.98727,1.02411
0.8,0.108803,1.08467,1.02037,0.0964295,1.98559,1.02455
0.81,0.10862,1.08607,1.01928,0.0963911,1.98393,1.025
0.82,0.108434,1.08747,1.01819,0.0963529,1.98227,1.02544
0.83,0.108252,1.08887,1.01711,0.0963149,1.98061,1.02588
0.84,0.108069,1.09028,1.01603,0.0962771,1.97895,1.02632
0.85,0.107883,1.09169,1.01495,0.0962396,1.97728,1.02675
0.86,0.107697,1.0931,1.01387,0.0962023,1.9756,1.02719
0.87,0.107503,1.09452,1.0128,0.0961653,1.97392,1.02763
0.88,0.107322,1.09595,1.01173,0.0961285,1.97224,1.02806
0.89,0.107126,1.09738,1.01065,0.0960919,1.97055,1.02849
0.9,0.106928,1.09881,1.00959,0.0960555,1.96886,1.02893
0.91,0.10674,1.10025,1.00852,0.0960194,1.96718,1.02937
0.92,0.106501,1.1017,1.00745,0.0959835,1.9655,1.02982
0.93,0.106318,1.10316,1.00639,0.0959478,1.96381,1.03028
0.94,0.106136,1.10463,1.00533,0.0959123,1.96212,1.03073
0.95,0.105942,1.10609,1.00427,0.0958771,1.96042,1.03118
0.96,0.10576,1.10756,1.00321,0.0958421,1.95871,1.03162
0.97,0.105572,1.10903,1.00215,0.0958074,1.95701,1.03207
0.98,0.105363,1.11051,1.0011,0.0957728,1.95529,1.03251
0.99,0.105157,1.11198,1.00005,0.0957385,1.95358,1.03295
1,0.104951,1.11345,0.998999,0.0957043,1.95188,1.03338
1.01,0.104743,1.11493,0.997951,0.0956704,1.95018,1.03382
1.02,0.104535,1.1164,0.996906,0.0956367,1.94847,1.03426
1.03,0.104328,1.1179,0.995862,0.0956033,1.94676,1.03471
1.04,0.10412,1.11941,0.994821,0.09557,1.94505,1.03516
1.05,0.103897,1.12093,0.993782,0.095537,1.94333,1.03562
1.06,0.103668,1.12244,0.992745,0.0955041,1.94161,1.03607
1.07,0.103434,1.12396,0.99171,0.0954715,1.93989,1.03653
1.08,0.103203,1.12548,0.990677,0.0954391,1.93817,1.03698
1.09,0.10297,1.12699,0.989647,0.0954068,1.93646,1.03743
1.1,0.102725,1.12852,0.98862,0.0953748,1.93474,1.03788
1.11,0.10249,1.13005,0.987594,0.095343,1.93301,1.03833
1.12,0.102254,1.13158,0.986571,0.0953114,1.93128,1.03877
1.13,0.10204,1.13311,0.985551,0.0952801,1.92956,1.03922
1.14,0.101815,1.13464,0.984532,0.0952489,1.92783,1.03966
1.15,0.101597,1.13618,0.983516,0.0952179,1.9261,1.04011
1.16,0.101369,1.13774,0.982502,0.0951871,1.92438,1.04057
1.17,0.101149,1.13929,0.98149,0.0951565,1.92266,1.04103
1.18,0.100919,1.14084,0.98048,0.095126,1.92096,1.04149
1.19,0.100699,1.14238,0.979473,0.0950958,1.91927,1.04195
1.2,0.100476,1.14393,0.978468,0.0950657,1.91757,1.04241
1.21,0.100257,1.14548,0.977465,0.0950358,1.91587,1.04287
1.22,0.100027,1.14703,0.976464,0.0950061,1.91417,1.04332
1.23,0.0998119,1.14859,0.975466,0.0949766,1.91247,1.04377
1.24,0.099588,1.15015,0.974469,0.0949472,1.91076,1.04423
1.25,0.0993663,1.1517,0.973475,0.0949181,1.90906,1.04468
1.26,0.0991347,1.15326,0.972483,0.0948891,1.90736,1.04513
1.27,0.0989089,1.15482,0.971494,0.0948603,1.90567,1.04558
1.28,0.0986718,1.15637,0.970507,0.0948317,1.90399,1.04602
1.29,0.0984271,1.15794,0.969522,0.0948033,1.9023,1.04649
1.3,0.098182,1.15952,0.96854,0.0947751,1.90062,1.04695
1.31,0.0979512,1.16109,0.96756,0.0947471,1.89893,1.04741
1.32,0.0977155,1.16267,0.966582,0.0947192,1.89724,1.04787
1.33,0.0974869,1.16424,0.965607,0.0946916,1.89556,1.04832
1.34,0.097258,1.16582,0.964634,0.0946641,1.89387,1.04878
1.35,0.0970335,1.1674,0.963663,0.0946368,1.89219,1.04923
1.36,0.0968096,1.16897,0.962695,0.0946097,1.89052,1.04968
1.37,0.0965879,1.17054,0.961728,0.0945827,1.88885,1.05013
1.38,0.0963661,1.17211,0.960764,0.094556,1.88718,1.05058
1.39,0.0961433,1.17368,0.959802,0.0945294,1.88552,1.05103
1.4,0.0959207,1.17526,0.958843,0.094503,1.88385,1.05147
1.41,0.0956945,1.17683,0.957885,0.0944768,1.88218,1.05192
1.42,0.0954568,1.17841,0.95693,0.0944507,1.88052,1.05236
1.43,0.0952252,1.18001,0.955978,0.0944248,1.87885,1.05282
1.44,0.0949963,1.18161,0.955027,0.0943991,1.87719,1.05329
1.45,0.0947666,1.18321,0.954079,0.0943735,1.87554,1.05375
1.46,0.0945375,1.18481,0.953133,0.0943481,1.87388,1.05421
1.47,0.0943077,1.18642,0.95219,0.0943229,1.87221,1.05466
1.48,0.094079,1.18803,0.951249,0.0942978,1.87055,1.05512
1.49,0.0938528,1.18964,0.95031,0.094273,1.86888,1.05557
1.5,0.0936067,1.19125,0.949373,0.0942482,1.86723,1.05603
1.51,0.0933632,1.19285,0.948439,0.0942237,1.86557,1.05648
1.52,0.0931241,1.19445,0.947507,0.0941993,1.86393,1.05693
1.53,0.0928856,1.19605,0.946578,0.0941751,1.86229,1.05738
1.54,0.0926462,1.19764,0.945651,0.094151,1.86067,1.05782
1.55,0.0924042,1.19922,0.944726,0.0941271,1.85906,1.05827
1.56,0.0921743,1.2008,0.943804,0.0941034,1.85745,1.05871
1.57,0.0919407,1.20238,0.942884,0.0940798,1.85585,1.05916
1.58,0.091706,1.20398,0.941966,0.0940564,1.85425,1.05962
1.59,0.0914757,1.20559,0.941051,0.0940331,1.85264,1.06008
1.6,0.0912489,1.20719,0.940138,0.09401,1.85104,1.06054
1.61,0.09101,1.2088,0.939227,0.093987,1.84944,1.06099
1.62,0.0907775,1.21041,0.938319,0.0939641,1.84783,1.06145
1.63,0.0905444,1.21202,0.937413,0.0939414,1.84623,1.0619
1.64,0.0903132,1.21363,0.93651,0.0939188,1.84463,1.06236
1.65,0.090087,1.21523,0.935608,0.0938964,1.84304,1.0628
1.66,0.0898627,1.21682,0.934709,0.0938741,1.84145,1.06325
1.67,0.0896393,1.21842,0.933812,0.093852,1.83986,1.06369
1.68,0.0894182,1.22002,0.932918,0.09383,1.83828,1.06413
1.69,0.0891933,1.22161,0.932025,0.0938082,1.83669,1.06456
1.7,0.0889652,1.22321,0.931135,0.0937865,1.8351,1.065
1.71,0.0887398,1.22482,0.930247,0.093765,1.83351,1.06544
1.72,0.088513,1.22642,0.929362,0.0937435,1.83192,1.06587
1.73,0.0882869,1.22803,0.928478,0.0937223,1.83034,1.06631
1.74,0.0880639,1.22965,0.927597,0.0937011,1.82875,1.06676
1.75,0.08784,1.23127,0.926719,0.0936801,1.82718,1.06721
1.76,0.0876176,1.23289,0.925842,0.0936593,1.82561,1.06766
1.77,0.0873973,1.23451,0.924968,0.0936385,1.82404,1.0681
1.78,0.0871756,1.23614,0.924095,0.0936179,1.82247,1.06855
1.79,0.0869558,1.23776,0.923225,0.0935973,1.8209,1.06899
1.8,0.0867374,1.23938,0.922357,0.093577,1.81933,1.06943
1.81,0.0865195,1.24101,0.921492,0.0935567,1.81776,1.06987
1.82,0.0863057,1.24264,0.920628,0.0935366,1.81619,1.07031
1.83,0.0860952,1.24426,0.919767,0.0935165,1.81462,1.07075
1.84,0.085881,1.24588,0.918908,0.0934966,1.81306,1.07119
1.85,0.0856657,1.2475,0.918051,0.0934768,1.81151,1.07163
1.86,0.0854328,1.24913,0.917196,0.0934572,1.80995,1.07206
1.87,0.0852085,1.25076,0.916343,0.0934376,1.80839,1.07249
1.88,0.0849816,1.25238,0.915493,0.0934182,1.80683,1.07292
1.89,0.0847488,1.25401,0.914645,0.0933988,1.80527,1.07335
1.9,0.0845177,1.25565,0.913799,0.0933796,1.80371,1.07379
1.91,0.0842878,1.2573,0.912956,0.0933606,1.80216,1.07424
1.92,0.0840612,1.25895,0.912115,0.0933416,1.80061,1.07468
1.93,0.0838359,1.2606,0.911276,0.0933227,1.79907,1.07513
1.94,0.0836085,1.26224,0.910439,0.093304,1.79753,1.07557
1.95,0.0833837,1.26387,0.909605,0.0932854,1.79601,1.07601
1.96,0.0831619,1.2655,0.908773,0.0932668,1.79449,1.07645
1.97,0.0829411,1.26713,0.907943,0.0932484,1.79297,1.07689
1.98,0.0827242,1.26876,0.907115,0.0932302,1.79145,1.07732
1.99,0.0825033,1.2704,0.90629,0.093212,1.78994,1.07776
2,0.0822882,1.27203,0.905466,0.0931939,1.78842,1.07819
2.01,0.08208,1.27366,0.904645,0.0931759,1.78691,1.07861
2.02,0.0818736,1.27528,0.903826,0.0931581,1.78539,1.07904
2.03,0.0816632,1.27691,0.903009,0.0931404,1.78388,1.07946
2.04,0.0814543,1.27853,0.902194,0.0931227,1.78238,1.07988
2.05,0.0812456,1.28015,0.901381,0.0931052,1.78088,1.0803
2.06,0.0810352,1.28176,0.90057,0.0930878,1.77939,1.08072
2.07,0.0808255,1.28338,0.899762,0.0930705,1.7779,1.08114
2.08,0.0806223,1.28501,0.898955,0.0930533,1.77641,1.08157
2.09,0.0804124,1.28665,0.89815,0.0930363,1.77492,1.082
2.1,0.0801948,1.28829,0.897348,0.0930193,1.77343,1.08243
2.11,0.0799792,1.28993,0.896548,0.0930024,1.77195,1.08286
2.12,0.079768,1.29157,0.89575,0.0929857,1.77047,1.08329
2.13,0.0795566,1.2932,0.894953,0.092969,1.76898,1.08371
2.14,0.0793523,1.29484,0.89416,0.0929525,1.76751,1.08414
2.15,0.0791461,1.29647,0.893368,0.092936,1.76603,1.08456
2.16,0.0789423,1.2981,0.892578,0.0929197,1.76457,1.08499
2.17,0.0787314,1.29973,0.89179,0.0929035,1.76311,1.08541
2.18,0.0785147,1.30135,0.891004,0.0928874,1.76165,1.08583
2.19,0.0782988,1.30298,0.890221,0.0928714,1.7602,1.08625
2.2,0.0780855,1.30461,0.88944,0.0928555,1.75874,1.08666
2.21,0.0778649,1.30623,0.88866,0.0928397,1.75729,1.08708
2.22,0.0776493,1.30786,0.887883,0.092824,1.75583,1.08749
2.23,0.0774329,1.30949,0.887108,0.0928084,1.75438,1.0879
2.24,0.0772182,1.31111,0.886336,0.0927929,1.75294,1.08832
2.25,0.0770039,1.31273,0.885565,0.0927775,1.75149,1.08873
2.26,0.0767924,1.31435,0.884797,0.0927623,1.75006,1.08913
2.27,0.0765777,1.31599,0.884031,0.0927471,1.74862,1.08955
2.28,0.0763624,1.31764,0.883266,0.092732,1.74717,1.08998
2.29,0.076151,1.31929,0.882504,0.0927171,1.74572,1.0904
2.3,0.0759373,1.32094,0.881745,0.0927022,1.74428,1.09082
2.31,0.0757268,1.32258,0.880987,0.0926874,1.74286,1.09124
2.32,0.0753772,1.32421,0.880232,0.0926728,1.74143,1.09166
2.33,0.0752424,1.32584,0.879481,0.0926582,1.74002,1.09207
2.34,0.0750966,1.32747,0.87873,0.0926438,1.73862,1.09249
2.35,0.074943,1.32908,0.877982,0.0926294,1.73722,1.0929
2.36,0.0747813,1.3307,0.877234,0.0926151,1.73583,1.09331
2.37,0.0746142,1.3323,0.876489,0.0926009,1.73445,1.09372
2.38,0.0744147,1.3339,0.875745,0.0925868,1.73308,1.09413
2.39,0.0742115,1.33549,0.875003,0.0925728,1.73172,1.09453
2.4,0.0740986,1.33708,0.874262,0.0925588,1.73035,1.09493
2.41,0.0739146,1.33867,0.873523,0.092545,1.72898,1.09533
2.42,0.073698,1.34026,0.872786,0.0925313,1.72762,1.09572
2.43,0.073483,1.34185,0.872051,0.0925176,1.72625,1.09612
2.44,0.0733559,1.34345,0.871318,0.0925041,1.72489,1.09651
2.45,0.0731639,1.34504,0.870587,0.0924906,1.72353,1.09691
2.46,0.0729473,1.34664,0.869857,0.0924772,1.72216,1.0973
2.47,0.0727712,1.34824,0.86913,0.092464,1.7208,1.09769
2.48,0.0726213,1.34985,0.868404,0.0924508,1.71944,1.0981
2.49,0.0724094,1.35147,0.86768,0.0924377,1.71809,1.09851
2.5,0.0722583,1.35308,0.866958,0.0924247,1.71674,1.09891
2.51,0.0720484,1.35469,0.866238,0.0924118,1.71539,1.09931
2.52,0.071899,1.3563,0.86552,0.092399,1.71404,1.09972
2.53,0.071691,1.35791,0.864803,0.0923863,1.7127,1.10012
2.54,0.0715433,1.35952,0.864088,0.0923736,1.71135,1.10052
2.55,0.0713373,1.36114,0.863375,0.0923611,1.71,1.10092
2.56,0.0711393,1.36275,0.862664,0.0923486,1.70866,1.10131
2.57,0.0709431,1.36436,0.861954,0.0923363,1.70731,1.10171
2.58,0.0708088,1.36598,0.861247,0.092324,1.70597,1.1021
2.59,0.0706118,1.36759,0.860541,0.0923118,1.70463,1.1025
2.6,0.0704694,1.36921,0.859837,0.0922996,1.70329,1.10289
2.61,0.0702637,1.37081,0.859134,0.0922876,1.70196,1.10328
2.62,0.0701237,1.37242,0.858434,0.0922756,1.70064,1.10367
2.63,0.0699186,1.37403,0.857735,0.0922637,1.69931,1.10406
2.64,0.0697699,1.37564,0.857037,0.0922519,1.69798,1.10445
2.65,0.0695602,1.37724,0.856342,0.0922402,1.69666,1.10484
2.66,0.0694177,1.37885,0.855648,0.0922285,1.69533,1.10522
2.67,0.0692138,1.38046,0.854956,0.092217,1.69401,1.10561
2.68,0.0690629,1.38207,0.854266,0.0922055,1.69269,1.10599
2.69,0.0688808,1.38368,0.853578,0.0921941,1.69137,1.10638
2.7,0.0687359,1.38531,0.852891,0.0921828,1.69005,1.10678
2.71,0.0685316,1.38694,0.852206,0.0921716,1.68874,1.10717
2.72,0.068385,1.38856,0.851523,0.0921604,1.68743,1.10757
2.73,0.0681832,1.39019,0.850842,0.0921493,1.68612,1.10796
2.74,0.0680377,1.39181,0.850162,0.0921384,1.68481,1.10835
2.75,0.067835,1.39344,0.849484,0.0921275,1.6835,1.10874
2.76,0.0676927,1.39507,0.848808,0.0921166,1.6822,1.10913
2.77,0.0675029,1.39669,0.848133,0.0921058,1.68089,1.10952
2.78,0.0673335,1.39831,0.84746,0.092095,1.67959,1.1099
2.79,0.0671796,1.39993,0.846789,0.0920843,1.67829,1.11029
2.8,0.0670026,1.40154,0.84612,0.0920737,1.677,1.11067
2.81,0.0668297,1.40315,0.845452,0.0920632,1.6757,1.11104
2.82,0.0666585,1.40476,0.844786,0.0920528,1.67441,1.11142
2.83,0.0664861,1.40637,0.844122,0.0920424,1.67313,1.1118
2.84,0.0663119,1.40797,0.84346,0.0920321,1.67186,1.11217
2.85,0.0661412,1.40957,0.842799,0.0920219,1.67059,1.11255
2.86,0.0659687,1.41116,0.84214,0.0920118,1.66932,1.11292
2.87,0.0657986,1.41276,0.841483,0.0920017,1.66805,1.11329
2.88,0.0656312,1.41435,0.840827,0.0919918,1.66679,1.11366
2.89,0.0654621,1.41594,0.840173,0.0919818,1.66553,1.11403
2.9,0.0652956,1.41754,0.839521,0.091972,1.66427,1.1144
2.91,0.0651334,1.41913,0.83887,0.0919622,1.66302,1.11476
2.92,0.0649724,1.42072,0.838221,0.0919526,1.66176,1.11513
2.93,0.0648141,1.42233,0.837574,0.0919429,1.66051,1.11551
2.94,0.0646561,1.42394,0.836928,0.0919334,1.65926,1.11589
2.95,0.0644945,1.42555,0.836284,0.0919239,1.65801,1.11627
2.96,0.0643325,1.42716,0.835641,0.0919145,1.65677,1.11665
2.97,0.0641704,1.42876,0.835,0.0919052,1.65553,1.11702
2.98,0.0640059,1.43036,0.834361,0.0918959,1.6543,1.1174
2.99,0.0638423,1.43196,0.833723,0.0918867,1.65307,1.11777
3,0.0636739,1.43355,0.833087,0.0918776,1.65184,1.11814
3.01,0.0635026,1.43515,0.832453,0.0918685,1.65061,1.11852
3.02,0.0633288,1.43675,0.83182,0.0918595,1.64939,1.11889
3.03,0.0631624,1.43834,0.831189,0.0918506,1.64816,1.11925
3.04,0.0629868,1.43993,0.83056,0.0918418,1.64694,1.11962
3.05,0.0628137,1.44153,0.829932,0.091833,1.64572,1.11999
3.06,0.0626437,1.44312,0.829307,0.0918243,1.64451,1.12035
3.07,0.0624722,1.44471,0.828683,0.0918156,1.64329,1.12072
3.08,0.0623031,1.4463,0.82806,0.091807,1.64208,1.12108
3.09,0.0621354,1.44788,0.82744,0.0917985,1.64087,1.12144
3.1,0.0619687,1.44946,0.826821,0.0917901,1.63967,1.1218
3.11,0.061803,1.45104,0.826203,0.0917817,1.63848,1.12216
3.12,0.0616397,1.45262,0.825588,0.0917733,1.63728,1.12252
3.13,0.0614789,1.45419,0.824974,0.0917651,1.63609,1.12288
3.14,0.061319,1.45577,0.824361,0.0917568,1.6349,1.12323
3.15,0.0611603,1.45734,0.82375,0.0917487,1.63371,1.12359
3.16,0.0609996,1.45892,0.823141,0.0917406,1.63253,1.12394
3.17,0.060841,1.46049,0.822533,0.0917326,1.63134,1.12429
3.18,0.0606825,1.46208,0.821927,0.0917246,1.63016,1.12466
3.19,0.060522,1.46367,0.821323,0.0917167,1.62898,1.12502
3.2,0.0603654,1.46525,0.82072,0.0917088,1.62781,1.12538
3.21,0.0602099,1.46683,0.820118,0.091701,1.62664,1.12574
3.22,0.060059,1.4684,0.819519,0.0916933,1.62547,1.1261
3.23,0.0599129,1.46997,0.81892,0.0916856,1.6243,1.12645
3.24,0.0597612,1.47155,0.818323,0.091678,1.62313,1.1268
3.25,0.0596107,1.47313,0.817728,0.0916705,1.62196,1.12716
3.26,0.0594605,1.47471,0.817134,0.0916629,1.62079,1.12751
3.27,0.0593103,1.47628,0.816542,0.0916555,1.61963,1.12786
3.28,0.0591587,1.47785,0.815951,0.0916481,1.61847,1.12821
3.29,0.0590072,1.47941,0.815362,0.0916408,1.61731,1.12855
3.3,0.0588572,1.48098,0.814774,0.0916335,1.61616,1.1289
3.31,0.0587078,1.48254,0.814187,0.0916263,1.61502,1.12924
3.32,0.0585559,1.48409,0.813603,0.0916191,1.61388,1.12959
3.33,0.058403,1.48565,0.813019,0.091612,1.61274,1.12993
3.34,0.0582498,1.48719,0.812437,0.0916049,1.61161,1.13027
3.35,0.0580979,1.48874,0.811857,0.0915979,1.61048,1.13061
3.36,0.057948,1.49027,0.811279,0.0915909,1.60937,1.13095
3.37,0.0578032,1.49181,0.810701,0.091584,1.60825,1.13129
3.38,0.0576582,1.49334,0.810125,0.0915772,1.60714,1.13163
3.39,0.0575138,1.49487,0.809551,0.0915704,1.60604,1.13196
3.4,0.057368,1.49639,0.808978,0.0915637,1.60493,1.1323
3.41,0.0572222,1.49792,0.808407,0.091557,1.60383,1.13263
3.42,0.057076,1.49945,0.807837,0.0915503,1.60272,1.13296
3.43,0.0569313,1.50097,0.807268,0.0915437,1.60163,1.13329
3.44,0.0567859,1.50251,0.806701,0.0915372,1.60053,1.13363
3.45,0.0566424,1.50405,0.806135,0.0915307,1.59943,1.13398
3.46,0.0565002,1.50559,0.805571,0.0915243,1.59834,1.13432
3.47,0.056358,1.50713,0.805008,0.0915179,1.59725,1.13466
3.48,0.0562136,1.50867,0.804447,0.0915116,1.59616,1.13501
3.49,0.0560711,1.51021,0.803887,0.0915053,1.59507,1.13535
3.5,0.0559297,1.51174,0.803328,0.0914991,1.59399,1.13568
3.51,0.055788,1.51327,0.802771,0.0914929,1.59291,1.13602
