time,velocity,ratio,centerX,Xmax,Xmin,Ymax
0,0,1,1.5,0.5,2.5,1
0.01,0.0164465,1.00002,1.49992,0.499936,2.49991,1
0.02,0.0305899,1.00007,1.49968,0.499759,2.49965,1.00001
0.03,0.0428667,1.00014,1.49932,0.499486,2.49926,1.00003
0.04,0.0535909,1.00025,1.49884,0.499132,2.49874,1.00005
0.05,0.0630636,1.00037,1.49825,0.498707,2.49812,1.00008
0.06,0.0714424,1.00052,1.49758,0.498219,2.4974,1.00011
0.07,0.0788803,1.00068,1.49683,0.497676,2.4966,1.00014
0.08,0.0855031,1.00087,1.49601,0.497087,2.49572,1.00019
0.09,0.0914236,1.00107,1.49513,0.496451,2.49478,1.00023
0.1,0.0967265,1.00128,1.49419,0.495772,2.49377,1.00028
0.11,0.101492,1.0015,1.4932,0.495054,2.49271,1.00033
0.12,0.105797,1.00175,1.49216,0.4943,2.4916,1.00039
0.13,0.109684,1.00201,1.49108,0.493512,2.49044,1.00047
0.14,0.113203,1.00228,1.48997,0.492692,2.48924,1.00055
0.15,0.116419,1.00256,1.48882,0.491842,2.488,1.00063
0.16,0.119346,1.00284,1.48765,0.490962,2.48673,1.00072
0.17,0.122001,1.00313,1.48644,0.490056,2.48542,1.0008
0.18,0.12441,1.00342,1.48521,0.489123,2.48408,1.00089
0.19,0.126599,1.00372,1.48395,0.488168,2.4827,1.00098
0.2,0.1286,1.00403,1.48268,0.48719,2.48129,1.00107
0.21,0.130419,1.00434,1.48139,0.486192,2.47986,1.00115
0.22,0.132075,1.00465,1.48007,0.485175,2.4784,1.00124
0.23,0.133581,1.00496,1.47875,0.48414,2.47691,1.00133
0.24,0.13496,1.00529,1.47741,0.483085,2.47541,1.00143
0.25,0.136231,1.00563,1.47605,0.482013,2.47389,1.00154
0.26,0.137398,1.00596,1.47468,0.480923,2.47235,1.00165
0.27,0.138481,1.00629,1.4733,0.479821,2.4708,1.00175
0.28,0.13947,1.00662,1.47192,0.478706,2.46924,1.00185
0.29,0.140364,1.00695,1.47052,0.47758,2.46766,1.00195
0.3,0.141176,1.00727,1.46911,0.476444,2.46608,1.00205
0.31,0.141911,1.0076,1.4677,0.475298,2.46448,1.00215
0.32,0.142574,1.00791,1.46628,0.474142,2.46288,1.00224
0.33,0.143181,1.00823,1.46485,0.472977,2.46127,1.00233
0.34,0.143721,1.00854,1.46341,0.471804,2.45966,1.00242
0.35,0.144213,1.00887,1.46198,0.470623,2.45804,1.00252
0.36,0.144671,1.00919,1.46053,0.469433,2.45643,1.00263
0.37,0.145094,1.00951,1.45908,0.468236,2.4548,1.00273
0.38,0.145498,1.00981,1.45763,0.467025,2.45318,1.00282
0.39,0.145853,1.01011,1.45618,0.465801,2.45156,1.00292
0.4,0.146187,1.0104,1.45472,0.464568,2.44993,1.003
0.41,0.146496,1.01068,1.45325,0.463327,2.4483,1.00309
0.42,0.146745,1.01096,1.45179,0.46208,2.44667,1.00317
0.43,0.146939,1.01123,1.45032,0.460827,2.44504,1.00325
0.44,0.147089,1.01149,1.44885,0.459568,2.44342,1.00332
0.45,0.147067,1.01176,1.44738,0.458307,2.44179,1.00341
0.46,0.147237,1.01204,1.44591,0.457042,2.44017,1.0035
0.47,0.147401,1.0123,1.44444,0.455772,2.43856,1.00359
0.48,0.147381,1.01256,1.44297,0.4545,2.43694,1.00367
0.49,0.147524,1.01281,1.44149,0.453225,2.43532,1.00375
0.5,0.147466,1.01306,1.44002,0.451942,2.43371,1.00382
0.51,0.147591,1.01329,1.43854,0.450651,2.4321,1.00389
0.52,0.147693,1.01351,1.43707,0.44935,2.4305,1.00396
0.53,0.14761,1.01373,1.43559,0.448044,2.4289,1.00402
0.54,0.147472,1.01393,1.43412,0.446731,2.42731,1.00408
0.55,0.147535,1.01413,1.43264,0.445415,2.42573,1.00415
0.56,0.147407,1.01434,1.43117,0.444094,2.42414,1.00422
0.57,0.147454,1.01455,1.4297,0.442772,2.42256,1.0043
0.58,0.147324,1.01475,1.42822,0.441447,2.42099,1.00437
0.59,0.147145,1.01494,1.42675,0.440119,2.41941,1.00443
0.6,0.147186,1.01513,1.42528,0.438793,2.41783,1.00449
0.61,0.147019,1.01532,1.42381,0.437464,2.41626,1.00455
0.62,0.146844,1.01551,1.42234,0.436156,2.41469,1.0046
0.63,0.14683,1.01568,1.42087,0.434831,2.41312,1.00466
0.64,0.14664,1.01585,1.41941,0.433513,2.41156,1.0047
0.65,0.146423,1.01602,1.41794,0.43219,2.41,1.00475
0.66,0.146215,1.0162,1.41648,0.430864,2.40844,1.00481
0.67,0.146211,1.01637,1.41502,0.429536,2.40689,1.00487
0.68,0.146039,1.01654,1.41356,0.428207,2.40534,1.00492
0.69,0.145855,1.01671,1.4121,0.426884,2.4038,1.00498
0.7,0.145606,1.01687,1.41064,0.425558,2.40226,1.00503
0.71,0.145429,1.01703,1.40919,0.424233,2.40072,1.00507
0.72,0.145254,1.01718,1.40774,0.422906,2.39919,1.00511
0.73,0.145076,1.01732,1.40629,0.421578,2.39767,1.00515
0.74,0.1449,1.01745,1.40484,0.420245,2.39614,1.00519
0.75,0.144704,1.01757,1.40339,0.418906,2.39463,1.00522
0.76,0.144474,1.0177,1.40194,0.417568,2.39311,1.00526
0.77,0.144248,1.01784,1.4005,0.416231,2.3916,1.00531
0.78,0.144055,1.01798,1.39906,0.414897,2.39009,1.00535
0.79,0.143877,1.01811,1.39762,0.413566,2.38859,1.00539
0.8,0.143714,1.01824,1.39619,0.412238,2.38708,1.00543
0.81,0.143537,1.01837,1.39475,0.410912,2.38558,1.00547
0.82,0.143351,1.0185,1.39332,0.409589,2.38408,1.00551
0.83,0.14315,1.01862,1.39189,0.408268,2.38259,1.00554
0.84,0.142906,1.01874,1.39046,0.40695,2.3811,1.00557
0.85,0.142495,1.01885,1.38903,0.405632,2.37961,1.0056
0.86,0.142262,1.01895,1.38761,0.404309,2.37814,1.00562
0.87,0.142053,1.01907,1.38619,0.402986,2.37666,1.00565
0.88,0.141846,1.01919,1.38477,0.401665,2.37519,1.0057
0.89,0.141658,1.01931,1.38335,0.400348,2.37371,1.00573
0.9,0.141284,1.01943,1.38194,0.399034,2.37224,1.00577
0.91,0.141114,1.01954,1.38053,0.397723,2.37078,1.0058
0.92,0.140937,1.01965,1.37912,0.396416,2.36932,1.00584
0.93,0.140749,1.01975,1.37771,0.395112,2.36788,1.00587
0.94,0.140373,1.01985,1.3763,0.393811,2.36643,1.00589
0.95,0.140168,1.01995,1.3749,0.392514,2.36499,1.00592
0.96,0.139954,1.02005,1.3735,0.39122,2.36356,1.00594
0.97,0.139744,1.02014,1.37211,0.389927,2.36212,1.00596
0.98,0.139365,1.02024,1.37071,0.388626,2.36069,1.00599
0.99,0.13918,1.02034,1.36932,0.387319,2.35926,1.00603
1,0.139,1.02044,1.36793,0.386006,2.35783,1.00606
1.01,0.138632,1.02053,1.36654,0.38469,2.3564,1.00609
1.02,0.138457,1.02062,1.36516,0.383373,2.35496,1.00612
1.03,0.138285,1.02071,1.36377,0.382054,2.35353,1.00615
1.04,0.137895,1.02079,1.3624,0.380736,2.3521,1.00618
1.05,0.137719,1.02087,1.36102,0.379419,2.35068,1.0062
1.06,0.137314,1.02095,1.35964,0.378103,2.34926,1.00622
1.07,0.13714,1.02102,1.35827,0.37679,2.34784,1.00624
1.08,0.136942,1.02109,1.3569,0.375477,2.34642,1.00626
1.09,0.136551,1.02119,1.35554,0.374199,2.345,1.00628
1.1,0.136199,1.02129,1.35417,0.372921,2.34359,1.00632
1.11,0.136194,1.02139,1.35281,0.371632,2.34218,1.00635
1.12,0.136146,1.02148,1.35145,0.370338,2.34077,1.00638
1.13,0.136047,1.02156,1.35009,0.369038,2.33936,1.0064
1.14,0.135959,1.02164,1.34873,0.367735,2.33796,1.00643
1.15,0.135863,1.0217,1.34737,0.366424,2.33656,1.00645
1.16,0.135751,1.02176,1.34602,0.365114,2.33517,1.00647
1.17,0.13562,1.02182,1.34466,0.363801,2.33378,1.00648
1.18,0.13546,1.02187,1.34331,0.362487,2.33239,1.00649
1.19,0.135283,1.02192,1.34195,0.361177,2.331,1.0065
1.2,0.135082,1.02196,1.3406,0.35987,2.32962,1.00651
1.21,0.134891,1.02203,1.33925,0.358565,2.32824,1.00653
1.22,0.134707,1.02209,1.33791,0.357256,2.32686,1.00655
1.23,0.13452,1.02214,1.33656,0.355948,2.32548,1.00657
1.24,0.134337,1.0222,1.33522,0.354645,2.3241,1.00659
1.25,0.134162,1.02225,1.33388,0.353347,2.32273,1.0066
1.26,0.133982,1.02231,1.33254,0.352054,2.32136,1.00662
1.27,0.13377,1.02236,1.3312,0.350767,2.32,1.00663
1.28,0.133544,1.02241,1.32986,0.349485,2.31864,1.00664
1.29,0.1333,1.02246,1.32853,0.348208,2.31728,1.00665
1.3,0.133056,1.02251,1.3272,0.346936,2.31592,1.00665
1.31,0.132801,1.02256,1.32587,0.345668,2.31457,1.00666
1.32,0.132579,1.02261,1.32454,0.344405,2.31322,1.00667
1.33,0.132373,1.02268,1.32322,0.343144,2.31187,1.00669
1.34,0.132194,1.02275,1.3219,0.341878,2.31052,1.00671
1.35,0.132006,1.02281,1.32058,0.34061,2.30917,1.00673
1.36,0.131804,1.02286,1.31926,0.339343,2.30783,1.00675
1.37,0.131605,1.02291,1.31794,0.338079,2.3065,1.00676
1.38,0.131411,1.02297,1.31663,0.336817,2.30516,1.00678
1.39,0.131205,1.02302,1.31532,0.33556,2.30383,1.00679
1.4,0.130992,1.02307,1.31401,0.334307,2.30251,1.0068
1.41,0.13077,1.02311,1.3127,0.333058,2.30118,1.00681
1.42,0.130534,1.02316,1.31139,0.331813,2.29986,1.00682
1.43,0.130286,1.02321,1.31009,0.330572,2.29854,1.00682
1.44,0.130045,1.02327,1.30879,0.329336,2.29722,1.00684
1.45,0.129817,1.02334,1.30749,0.328104,2.2959,1.00686
1.46,0.129613,1.02341,1.30619,0.32687,2.29458,1.00689
1.47,0.129401,1.02347,1.3049,0.325631,2.29327,1.00691
1.48,0.12917,1.02353,1.30361,0.324389,2.29195,1.00693
1.49,0.128944,1.02358,1.30232,0.323145,2.29064,1.00694
1.5,0.128719,1.02363,1.30103,0.321903,2.28932,1.00696
1.51,0.128476,1.02368,1.29975,0.320663,2.28801,1.00697
1.52,0.128231,1.02373,1.29846,0.319425,2.28671,1.00698
1.53,0.127972,1.02378,1.29718,0.318191,2.2854,1.007
1.54,0.127704,1.02383,1.2959,0.31696,2.2841,1.007
1.55,0.127431,1.02387,1.29463,0.315734,2.2828,1.00701
1.56,0.127166,1.02393,1.29336,0.314511,2.2815,1.00703
1.57,0.126899,1.024,1.29209,0.313294,2.2802,1.00706
1.58,0.126653,1.02407,1.29082,0.31209,2.27891,1.00708
1.59,0.126421,1.02415,1.28956,0.310898,2.27761,1.0071
1.6,0.126171,1.02421,1.28829,0.309698,2.27632,1.00712
1.61,0.12591,1.02428,1.28704,0.308508,2.27504,1.00714
1.62,0.125654,1.02435,1.28578,0.307316,2.27376,1.00716
1.63,0.125427,1.02441,1.28452,0.306125,2.27248,1.00717
1.64,0.125196,1.02446,1.28327,0.304933,2.2712,1.00719
1.65,0.124962,1.02452,1.28202,0.303742,2.26993,1.0072
1.66,0.124718,1.02458,1.28077,0.302561,2.26865,1.00721
1.67,0.124454,1.02463,1.27953,0.301382,2.26738,1.00721
1.68,0.124192,1.0247,1.27829,0.300206,2.26611,1.00723
1.69,0.123937,1.02477,1.27705,0.299033,2.26484,1.00725
1.7,0.1237,1.02485,1.27581,0.297863,2.26358,1.00728
1.71,0.123469,1.02492,1.27457,0.296696,2.26231,1.0073
1.72,0.123241,1.02499,1.27334,0.295527,2.26105,1.00732
1.73,0.12302,1.02505,1.27211,0.294355,2.25979,1.00733
1.74,0.122791,1.02511,1.27088,0.293186,2.25853,1.00735
1.75,0.122547,1.02517,1.26966,0.292022,2.25728,1.00737
1.76,0.122269,1.02523,1.26843,0.290862,2.25603,1.00738
1.77,0.121984,1.02529,1.26721,0.289707,2.25479,1.00739
1.78,0.121696,1.02535,1.26599,0.288555,2.25355,1.0074
1.79,0.121406,1.0254,1.26478,0.287409,2.25231,1.00741
1.8,0.121111,1.02546,1.26357,0.286267,2.25108,1.00742
1.81,0.120832,1.02553,1.26236,0.28513,2.24984,1.00744
1.82,0.120552,1.02562,1.26115,0.283997,2.24859,1.00746
1.83,0.120295,1.0257,1.25995,0.282869,2.24736,1.00749
1.84,0.120045,1.02577,1.25875,0.281743,2.24614,1.00751
1.85,0.119808,1.02584,1.25755,0.28062,2.24492,1.00753
1.86,0.119564,1.0259,1.25635,0.279494,2.24371,1.00754
1.87,0.119313,1.02596,1.25516,0.278369,2.24251,1.00756
1.88,0.119047,1.02602,1.25397,0.277248,2.2413,1.00758
1.89,0.118779,1.02608,1.25278,0.276131,2.2401,1.00759
1.9,0.118503,1.02614,1.2516,0.275018,2.2389,1.00761
1.91,0.118227,1.0262,1.25041,0.273909,2.2377,1.00762
1.92,0.117946,1.02625,1.24923,0.272806,2.2365,1.00763
1.93,0.117659,1.02631,1.24806,0.271707,2.23531,1.00764
1.94,0.11738,1.02639,1.24688,0.270612,2.23411,1.00766
1.95,0.117109,1.02648,1.24571,0.269522,2.23291,1.00769
1.96,0.116854,1.02656,1.24454,0.26844,2.23171,1.00771
1.97,0.116593,1.02664,1.24337,0.26736,2.23051,1.00773
1.98,0.116347,1.02673,1.24221,0.266283,2.22932,1.00775
1.99,0.116099,1.02681,1.24105,0.265209,2.22812,1.00777
2,0.115847,1.02689,1.23989,0.264129,2.22693,1.00779
2.01,0.115579,1.02696,1.23873,0.263043,2.22574,1.0078
2.02,0.115305,1.02703,1.23758,0.261955,2.22455,1.00782
2.03,0.115014,1.02709,1.23643,0.260864,2.22337,1.00783
2.04,0.11472,1.02715,1.23528,0.259774,2.22219,1.00785
2.05,0.114422,1.02721,1.23414,0.258684,2.221,1.00786
2.06,0.114136,1.02727,1.23299,0.257595,2.21983,1.00787
2.07,0.113855,1.02734,1.23186,0.256509,2.21865,1.00789
2.08,0.113564,1.02741,1.23072,0.255425,2.21747,1.00791
2.09,0.113297,1.02748,1.22959,0.254344,2.2163,1.00794
2.1,0.113039,1.02755,1.22846,0.253265,2.21513,1.00796
2.11,0.112781,1.02762,1.22733,0.25219,2.21397,1.00798
2.12,0.112525,1.02769,1.2262,0.251119,2.21281,1.00801
2.13,0.112281,1.02776,1.22508,0.250052,2.21165,1.00802
2.14,0.111944,1.02786,1.22396,0.249056,2.2105,1.00804
2.15,0.111677,1.02795,1.22284,0.248047,2.20934,1.00806
2.16,0.111376,1.02804,1.22173,0.247043,2.2082,1.00807
2.17,0.111091,1.02813,1.22061,0.246038,2.20705,1.00809
2.18,0.110806,1.02821,1.21951,0.245028,2.20591,1.0081
2.19,0.110517,1.02829,1.2184,0.244016,2.20477,1.00811
2.2,0.110224,1.02837,1.2173,0.243002,2.20363,1.00812
2.21,0.109937,1.02845,1.2162,0.241984,2.2025,1.00815
2.22,0.109632,1.02854,1.2151,0.240974,2.20137,1.00817
2.23,0.109343,1.02863,1.21401,0.239965,2.20024,1.0082
2.24,0.109068,1.02872,1.21291,0.238959,2.19911,1.00822
2.25,0.108824,1.0288,1.21183,0.237956,2.19799,1.00824
2.26,0.108554,1.02888,1.21074,0.236957,2.19687,1.00826
2.27,0.108274,1.02897,1.20966,0.235961,2.19575,1.00828
2.28,0.107996,1.02905,1.20858,0.23497,2.19464,1.0083
2.29,0.107697,1.02913,1.2075,0.233981,2.19354,1.00831
2.3,0.107392,1.0292,1.20642,0.232989,2.19243,1.00833
2.31,0.10708,1.02927,1.20535,0.231998,2.19133,1.00834
2.32,0.106776,1.02934,1.20428,0.231011,2.19023,1.00836
2.33,0.106422,1.02941,1.20322,0.230027,2.18914,1.00837
2.34,0.106126,1.02948,1.20216,0.229047,2.18805,1.00838
2.35,0.105835,1.02957,1.2011,0.228071,2.18696,1.0084
2.36,0.105499,1.02966,1.20004,0.227099,2.18586,1.00843
2.37,0.105227,1.02974,1.19899,0.226131,2.18478,1.00845
2.38,0.10496,1.02983,1.19794,0.225168,2.1837,1.00848
2.39,0.104667,1.02991,1.19689,0.224209,2.18262,1.0085
2.4,0.104372,1.03,1.19585,0.223254,2.18155,1.00852
2.41,0.104119,1.03008,1.1948,0.222299,2.18048,1.00854
2.42,0.103849,1.03016,1.19377,0.221344,2.17942,1.00856
2.43,0.103633,1.03023,1.19273,0.220389,2.17835,1.00858
2.44,0.103378,1.0303,1.19169,0.219433,2.1773,1.00859
2.45,0.103116,1.03037,1.19066,0.218479,2.17624,1.00861
2.46,0.10285,1.03044,1.18963,0.217522,2.17518,1.00862
2.47,0.102576,1.0305,1.18861,0.216564,2.17413,1.00864
2.48,0.102303,1.03056,1.18758,0.215609,2.17308,1.00865
2.49,0.102031,1.03062,1.18656,0.214657,2.17204,1.00866
2.5,0.101756,1.0307,1.18554,0.213709,2.17099,1.00869
2.51,0.101488,1.03078,1.18453,0.212764,2.16994,1.00871
2.52,0.101221,1.03085,1.18352,0.211824,2.1689,1.00873
2.53,0.100947,1.03093,1.18251,0.210889,2.16786,1.00875
2.54,0.100687,1.03101,1.1815,0.209957,2.16683,1.00877
2.55,0.10043,1.03108,1.18049,0.209029,2.1658,1.00879
2.56,0.100166,1.03116,1.17949,0.208106,2.16477,1.00881
2.57,0.0999072,1.03123,1.17849,0.207187,2.16374,1.00883
2.58,0.0996409,1.0313,1.17749,0.206273,2.16272,1.00884
2.59,0.0993539,1.03137,1.1765,0.205363,2.1617,1.00886
2.6,0.0990718,1.03145,1.17551,0.204457,2.16068,1.00887
2.61,0.0987799,1.03152,1.17452,0.203554,2.15967,1.00889
2.62,0.0984755,1.03159,1.17353,0.202655,2.15866,1.0089
2.63,0.0981764,1.03166,1.17255,0.201751,2.15765,1.00891
2.64,0.097882,1.03172,1.17157,0.200845,2.15664,1.00892
2.65,0.0975843,1.03179,1.1706,0.199938,2.15563,1.00894
2.66,0.0972927,1.03187,1.16962,0.199033,2.15463,1.00896
2.67,0.0970009,1.03194,1.16865,0.19813,2.15363,1.00898
2.68,0.0967039,1.03201,1.16768,0.197229,2.15264,1.009
2.69,0.0964155,1.03208,1.16672,0.196331,2.15164,1.00902
2.7,0.0961274,1.03215,1.16576,0.195436,2.15066,1.00904
2.71,0.0958392,1.03222,1.1648,0.194544,2.14967,1.00906
2.72,0.0955616,1.03228,1.16384,0.193655,2.14869,1.00908
2.73,0.0952895,1.03235,1.16289,0.19277,2.14772,1.00909
2.74,0.0950165,1.03242,1.16194,0.191889,2.14674,1.00911
2.75,0.0947443,1.03248,1.16099,0.191012,2.14577,1.00913
2.76,0.0943898,1.03255,1.16004,0.190139,2.1448,1.00914
2.77,0.0941315,1.03261,1.1591,0.189269,2.14383,1.00915
2.78,0.0938709,1.03268,1.15816,0.188404,2.14287,1.00916
2.79,0.0936073,1.03274,1.15722,0.187542,2.14191,1.00918
2.8,0.0933275,1.03282,1.15629,0.186709,2.14095,1.00918
2.81,0.0930543,1.0329,1.15536,0.185863,2.13999,1.0092
2.82,0.0927862,1.03298,1.15443,0.185017,2.13903,1.00922
2.83,0.0925343,1.03306,1.15351,0.184179,2.13807,1.00925
2.84,0.0922798,1.03314,1.15258,0.183337,2.13712,1.00926
2.85,0.0920204,1.03321,1.15166,0.182495,2.13617,1.00928
2.86,0.091757,1.03329,1.15074,0.181653,2.13523,1.0093
2.87,0.0914935,1.03336,1.14983,0.180813,2.13429,1.00932
2.88,0.0912239,1.03343,1.14891,0.179972,2.13335,1.00934
2.89,0.0909548,1.0335,1.148,0.179142,2.13241,1.00935
2.9,0.0906844,1.03357,1.1471,0.178317,2.13148,1.00937
2.91,0.0903937,1.03364,1.14619,0.177495,2.13056,1.00938
2.92,0.09011,1.03371,1.14529,0.176676,2.12963,1.0094
2.93,0.0898186,1.03378,1.14439,0.17586,2.12872,1.00941
2.94,0.0895292,1.03384,1.1435,0.175047,2.1278,1.00942
2.95,0.0892397,1.03391,1.1426,0.174238,2.12689,1.00943
2.96,0.0886128,1.03397,1.14171,0.173434,2.12598,1.00944
2.97,0.088382,1.03404,1.14083,0.172633,2.12507,1.00945
2.98,0.0881621,1.03412,1.13995,0.171836,2.12416,1.00946
2.99,0.0879409,1.03419,1.13907,0.171036,2.12325,1.00948
3,0.0877212,1.03427,1.13819,0.170239,2.12235,1.0095
3.01,0.0874915,1.03434,1.13732,0.169442,2.12145,1.00952
3.02,0.0872555,1.0344,1.13644,0.168648,2.12056,1.00953
3.03,0.0870083,1.03447,1.13557,0.167857,2.11967,1.00955
3.04,0.0867553,1.03454,1.1347,0.167069,2.11879,1.00956
3.05,0.0864966,1.0346,1.13384,0.166284,2.1179,1.00958
3.06,0.0862407,1.03467,1.13297,0.165502,2.11703,1.00959
3.07,0.0859866,1.03474,1.13211,0.164723,2.11615,1.00961
3.08,0.0857314,1.0348,1.13126,0.163947,2.11528,1.00962
3.09,0.0854771,1.03487,1.1304,0.163175,2.1144,1.00963
3.1,0.0852225,1.03494,1.12955,0.162406,2.11353,1.00965
3.11,0.0849585,1.035,1.1287,0.161642,2.11266,1.00966
3.12,0.084706,1.03507,1.12785,0.160881,2.1118,1.00967
3.13,0.0844461,1.03514,1.127,0.160124,2.11093,1.00968
3.14,0.0841826,1.03521,1.12616,0.159369,2.11007,1.00969
3.15,0.0839164,1.03528,1.12532,0.158618,2.1092,1.0097
3.16,0.0836633,1.03536,1.12449,0.157871,2.10834,1.00972
3.17,0.0834177,1.03545,1.12365,0.157129,2.10748,1.00974
3.18,0.0831792,1.03553,1.12282,0.15639,2.10662,1.00976
3.19,0.0829331,1.03561,1.12199,0.155653,2.10576,1.00978
3.2,0.0826764,1.03569,1.12116,0.154915,2.10491,1.0098
3.21,0.0824094,1.03577,1.12034,0.154177,2.10406,1.00982
3.22,0.0821404,1.03585,1.11951,0.153442,2.10321,1.00983
3.23,0.0818666,1.03593,1.11869,0.152709,2.10236,1.00985
3.24,0.081594,1.03601,1.11788,0.151978,2.10152,1.00987
3.25,0.0813262,1.03608,1.11706,0.151251,2.10068,1.00989
3.26,0.0810581,1.03616,1.11625,0.150527,2.09984,1.0099
3.27,0.0807965,1.03624,1.11544,0.149806,2.09901,1.00992
3.28,0.0805096,1.03632,1.11464,0.149088,2.09817,1.00994
3.29,0.0802524,1.0364,1.11384,0.148374,2.09734,1.00995
3.3,0.0799436,1.03647,1.11303,0.147664,2.09651,1.00996
3.31,0.0796937,1.03655,1.11224,0.146958,2.09568,1.00998
3.32,0.0793867,1.03663,1.11144,0.146256,2.09486,1.00999
3.33,0.0791314,1.03671,1.11065,0.145558,2.09403,1.01
3.34,0.0788375,1.03679,1.10986,0.144863,2.09321,1.01002
3.35,0.0785461,1.03689,1.10908,0.144173,2.09239,1.01004
3.36,0.0782637,1.03698,1.10829,0.143486,2.09158,1.01006
3.37,0.0780507,1.03707,1.10751,0.142804,2.09076,1.01008
3.38,0.0777868,1.03716,1.10673,0.142125,2.08995,1.0101
3.39,0.0775246,1.03725,1.10596,0.14145,2.08915,1.01012
3.4,0.0772527,1.03734,1.10518,0.140778,2.08834,1.01014
3.41,0.0769589,1.03743,1.10441,0.140108,2.08754,1.01016
3.42,0.0766681,1.03751,1.10365,0.139436,2.08675,1.01018
3.43,0.0763802,1.0376,1.10288,0.138762,2.08596,1.0102
3.44,0.0760885,1.03768,1.10212,0.138088,2.08517,1.01022
3.45,0.0758044,1.03776,1.10136,0.137414,2.08438,1.01024
3.46,0.0755283,1.03783,1.1006,0.136742,2.08359,1.01025
3.47,0.0752548,1.03791,1.09985,0.136071,2.08281,1.01027
3.48,0.0749902,1.03799,1.0991,0.135402,2.08203,1.01029
3.49,0.0747279,1.03806,1.09835,0.134735,2.08126,1.0103
3.5,0.0743455,1.03813,1.09761,0.13407,2.08048,1.01032
3.51,0.0741178,1.03821,1.09687,0.133407,2.07971,1.01033
3.52,0.0738683,1.03828,1.09613,0.132746,2.07894,1.01034
3.53,0.073612,1.03835,1.09539,0.132087,2.07817,1.01036
3.54,0.0733609,1.03842,1.09465,0.13143,2.07741,1.01037
3.55,0.0731179,1.0385,1.09392,0.130774,2.07664,1.01039
3.56,0.0728738,1.03858,1.09319,0.130121,2.07588,1.01041
3.57,0.0726386,1.03865,1.09247,0.12947,2.07513,1.01043
3.58,0.0724109,1.03873,1.09174,0.128823,2.07437,1.01045
3.59,0.0721827,1.0388,1.09102,0.128178,2.07362,1.01047
3.6,0.0719531,1.03888,1.0903,0.127537,2.07288,1.01049
3.61,0.0717149,1.03895,1.08958,0.126898,2.07213,1.0105
3.62,0.0714632,1.03902,1.08887,0.126262,2.0714,1.01052
3.63,0.0712024,1.0391,1.08815,0.125628,2.07066,1.01054
3.64,0.0709453,1.03917,1.08744,0.124997,2.06993,1.01055
3.65,0.0706755,1.03927,1.08674,0.124436,2.0692,1.01057
3.66,0.0704112,1.03936,1.08603,0.12385,2.06847,1.01059
