time,velocity,ratio,centerX,Xmax,Xmin,Ymax
0,0,1,6,5,7,1
0.01,0.0184197,1,5.99991,4.99991,6.9999,1
0.02,0.0343782,1.00001,5.99964,4.99965,6.99963,1
0.03,0.0484221,1.00003,5.99923,4.99925,6.99921,1.00001
0.04,0.0607838,1.00005,5.99868,4.99872,6.99865,1.00001
0.05,0.0717995,1.00007,5.99802,4.99807,6.99798,1.00002
0.06,0.0816325,1.00008,5.99725,4.99731,6.9972,1.00003
0.07,0.0904562,1.00009,5.99639,4.99646,6.99633,1.00003
0.08,0.0984272,1.0001,5.99545,4.99553,6.99538,1.00003
0.09,0.105662,1.00011,5.99443,4.99452,6.99435,1.00003
0.1,0.112262,1.00011,5.99334,4.99344,6.99326,1.00002
0.11,0.118349,1.0001,5.99219,4.99229,6.99211,1.00001
0.12,0.123989,1.0001,5.99097,4.99108,6.9909,1.00001
0.13,0.129219,1.00008,5.98971,4.98981,6.98966,1.00001
0.14,0.134139,1.00008,5.98839,4.98847,6.98836,1.00002
0.15,0.138754,1.00007,5.98703,4.9871,6.98702,1.00003
0.16,0.143067,1.00008,5.98562,4.98569,6.98562,1.00004
0.17,0.147056,1.00009,5.98417,4.98425,6.98416,1.00005
0.18,0.150622,1.0001,5.98268,4.98277,6.98266,1.00004
0.19,0.153925,1.00011,5.98116,4.98125,6.98112,1.00004
0.2,0.15699,1.00011,5.97961,4.9797,6.97955,1.00004
0.21,0.159854,1.00011,5.97803,4.97812,6.97796,1.00002
0.22,0.162576,1.0001,5.97641,4.97651,6.97633,1.00001
0.23,0.165184,1.00012,5.97478,4.97488,6.97469,1.00002
0.24,0.167746,1.00011,5.97311,4.97321,6.97303,1.00003
0.25,0.170282,1.00012,5.97142,4.97151,6.97136,1.00004
0.26,0.172756,1.00013,5.96971,4.9698,6.96965,1.00005
0.27,0.174971,1.00014,5.96797,4.96808,6.96791,1.00006
0.28,0.176948,1.00015,5.96621,4.96633,6.96614,1.00006
0.29,0.178803,1.00016,5.96444,4.96456,6.96434,1.00005
0.3,0.180543,1.00015,5.96264,4.96276,6.96253,1.00004
0.31,0.182233,1.00015,5.96083,4.96095,6.9607,1.00002
0.32,0.183909,1.00016,5.959,4.95913,6.95887,1.00003
0.33,0.185652,1.00017,5.95715,4.95727,6.95703,1.00005
0.34,0.187401,1.00016,5.95529,4.9554,6.95519,1.00006
0.35,0.189165,1.00016,5.9534,4.95352,6.95332,1.00006
0.36,0.190539,1.00017,5.95151,4.95163,6.95142,1.00006
0.37,0.191821,1.00017,5.9496,4.94972,6.9495,1.00006
0.38,0.193055,1.00016,5.94767,4.9478,6.94756,1.00004
0.39,0.19423,1.00015,5.94574,4.94586,6.94561,1.00003
0.4,0.19544,1.00016,5.94379,4.94392,6.94366,1.00003
0.41,0.196723,1.00017,5.94183,4.94195,6.94171,1.00005
0.42,0.198081,1.00016,5.93986,4.93997,6.93976,1.00006
0.43,0.19948,1.00015,5.93787,4.93797,6.93779,1.00006
0.44,0.200549,1.00016,5.93587,4.93598,6.93579,1.00006
0.45,0.201469,1.00016,5.93386,4.93398,6.93377,1.00006
0.46,0.202374,1.00015,5.93184,4.93196,6.93173,1.00004
0.47,0.203254,1.00015,5.92981,4.92993,6.92969,1.00003
0.48,0.204209,1.00017,5.92778,4.92791,6.92765,1.00004
0.49,0.205276,1.00017,5.92573,4.92586,6.92561,1.00005
0.5,0.206445,1.00017,5.92367,4.9238,6.92358,1.00006
0.51,0.207534,1.00017,5.9216,4.92172,6.92152,1.00007
0.52,0.208296,1.00017,5.91953,4.91965,6.91944,1.00007
0.53,0.20901,1.00016,5.91744,4.91756,6.91734,1.00005
0.54,0.209708,1.00015,5.91535,4.91546,6.91523,1.00004
0.55,0.210443,1.00016,5.91325,4.91337,6.91312,1.00003
0.56,0.211237,1.00018,5.91114,4.91127,6.91101,1.00005
0.57,0.212192,1.00018,5.90902,4.90915,6.90891,1.00006
0.58,0.213237,1.00017,5.9069,4.90702,6.9068,1.00007
0.59,0.213944,1.00018,5.90476,4.90489,6.90467,1.00007
0.6,0.21453,1.00017,5.90262,4.90275,6.90252,1.00006
0.61,0.215096,1.00016,5.90047,4.9006,6.90036,1.00004
0.62,0.215672,1.00016,5.89832,4.89845,6.89819,1.00003
0.63,0.216324,1.00019,5.89616,4.89631,6.89603,1.00005
0.64,0.217124,1.00019,5.89399,4.89414,6.89387,1.00006
0.65,0.218032,1.00019,5.89182,4.89196,6.89171,1.00007
0.66,0.218738,1.00019,5.88964,4.88979,6.88954,1.00007
0.67,0.219194,1.0002,5.88745,4.8876,6.88734,1.00006
0.68,0.219669,1.00019,5.88525,4.8854,6.88513,1.00005
0.69,0.220122,1.00018,5.88305,4.88321,6.88291,1.00003
0.7,0.220646,1.0002,5.88085,4.88101,6.88071,1.00005
0.71,0.221299,1.00021,5.87864,4.8788,6.87851,1.00006
0.72,0.222092,1.0002,5.87643,4.87658,6.87632,1.00007
0.73,0.222754,1.0002,5.8742,4.87436,6.87411,1.00007
0.74,0.223133,1.0002,5.87197,4.87213,6.87187,1.00007
0.75,0.223482,1.00018,5.86974,4.86989,6.86963,1.00005
0.76,0.223856,1.00017,5.86751,4.86765,6.86738,1.00004
0.77,0.224341,1.00019,5.86527,4.86542,6.86514,1.00005
0.78,0.225026,1.0002,5.86302,4.86317,6.8629,1.00006
0.79,0.225809,1.00019,5.86077,4.86091,6.86067,1.00007
0.8,0.226438,1.00018,5.85851,4.85864,6.85843,1.00007
0.81,0.226799,1.00018,5.85624,4.85638,6.85616,1.00007
0.82,0.227151,1.00017,5.85397,4.85409,6.85387,1.00005
0.83,0.227527,1.00016,5.8517,4.85182,6.85158,1.00003
0.84,0.227972,1.00018,5.84942,4.84956,6.84929,1.00005
0.85,0.228587,1.00019,5.84714,4.84728,6.84701,1.00006
0.86,0.229329,1.00019,5.84485,4.84499,6.84474,1.00007
0.87,0.229835,1.00019,5.84256,4.8427,6.84246,1.00007
0.88,0.230157,1.00019,5.84026,4.8404,6.84015,1.00006
0.89,0.230455,1.00018,5.83795,4.83809,6.83782,1.00005
0.9,0.230791,1.00019,5.83565,4.83579,6.83551,1.00004
0.91,0.231206,1.00021,5.83334,4.8335,6.83319,1.00006
0.92,0.231817,1.00022,5.83103,4.83118,6.83088,1.00007
0.93,0.232527,1.00022,5.8287,4.82886,6.82858,1.00008
0.94,0.232889,1.00021,5.82638,4.82654,6.82626,1.00007
0.95,0.233144,1.00021,5.82405,4.82421,6.82392,1.00006
0.96,0.233414,1.0002,5.82172,4.82186,6.82157,1.00005
0.97,0.233717,1.0002,5.81938,4.81953,6.81923,1.00005
0.98,0.234154,1.00022,5.81704,4.8172,6.81689,1.00006
0.99,0.234753,1.00021,5.8147,4.81485,6.81457,1.00007
1,0.235405,1.00021,5.81235,4.81249,6.81224,1.00008
1.01,0.235619,1.0002,5.81,4.81014,6.80988,1.00007
1.02,0.235824,1.00019,5.80764,4.80778,6.80751,1.00006
1.03,0.236043,1.00018,5.80528,4.80542,6.80514,1.00004
1.04,0.236357,1.0002,5.80292,4.80307,6.80277,1.00005
1.05,0.236849,1.00022,5.80055,4.80071,6.80041,1.00007
1.06,0.237471,1.00021,5.79818,4.79834,6.79806,1.00008
1.07,0.237895,1.00021,5.79581,4.79596,6.7957,1.00008
1.08,0.238077,1.0002,5.79343,4.79358,6.79332,1.00007
1.09,0.238258,1.00018,5.79105,4.79118,6.79092,1.00005
1.1,0.238484,1.00019,5.78866,4.7888,6.78852,1.00005
1.11,0.238793,1.00021,5.78628,4.78643,6.78613,1.00006
1.12,0.239325,1.00022,5.78389,4.78404,6.78375,1.00007
1.13,0.23994,1.00021,5.78149,4.78164,6.78137,1.00008
1.14,0.240123,1.00021,5.77909,4.77925,6.77898,1.00007
1.15,0.240269,1.0002,5.77669,4.77684,6.77657,1.00006
1.16,0.240409,1.00019,5.77429,4.77444,6.77415,1.00004
1.17,0.240643,1.00021,5.77188,4.77204,6.77174,1.00006
1.18,0.241032,1.00023,5.76948,4.76965,6.76933,1.00007
1.19,0.241588,1.00023,5.76706,4.76724,6.76693,1.00008
1.2,0.241955,1.00023,5.76465,4.76483,6.76453,1.00008
1.21,0.242062,1.00023,5.76223,4.76241,6.7621,1.00007
1.22,0.242149,1.00022,5.75981,4.75998,6.75966,1.00005
1.23,0.242323,1.00022,5.75739,4.75756,6.75723,1.00005
1.24,0.242536,1.00024,5.75496,4.75515,6.7548,1.00007
1.25,0.242988,1.00024,5.75254,4.75272,6.75239,1.00008
1.26,0.243514,1.00024,5.7501,4.75029,6.74998,1.00008
1.27,0.243611,1.00024,5.74767,4.74786,6.74755,1.00008
1.28,0.243674,1.00022,5.74523,4.74542,6.7451,1.00007
1.29,0.243758,1.0002,5.7428,4.74297,6.74266,1.00005
1.3,0.243964,1.00022,5.74036,4.74054,6.74022,1.00007
1.31,0.244385,1.00023,5.73792,4.7381,6.73779,1.00008
1.32,0.244935,1.00023,5.73547,4.73565,6.73536,1.00008
1.33,0.24523,1.00022,5.73302,4.73319,6.73293,1.00008
1.34,0.24534,1.0002,5.73057,4.73073,6.73047,1.00007
1.35,0.245445,1.00019,5.72812,4.72826,6.72799,1.00005
1.36,0.245632,1.0002,5.72566,4.72581,6.72552,1.00006
1.37,0.24593,1.00023,5.72321,4.72337,6.72306,1.00007
1.38,0.246419,1.00023,5.72074,4.72091,6.7206,1.00008
1.39,0.246878,1.00023,5.71828,4.71845,6.71815,1.00008
1.4,0.246978,1.00023,5.71581,4.71599,6.71568,1.00008
1.41,0.24709,1.00022,5.71334,4.7135,6.71319,1.00006
1.42,0.247224,1.00022,5.71087,4.71103,6.71071,1.00006
1.43,0.247458,1.00025,5.7084,4.70858,6.70822,1.00007
1.44,0.247896,1.00026,5.70592,4.70611,6.70575,1.00008
1.45,0.248447,1.00026,5.70344,4.70363,6.70329,1.00009
1.46,0.248565,1.00025,5.70096,4.70115,6.70081,1.00008
1.47,0.248649,1.00024,5.69847,4.69865,6.69831,1.00007
1.48,0.24874,1.00023,5.69598,4.69616,6.69581,1.00005
1.49,0.248918,1.00025,5.6935,4.69367,6.69332,1.00007
1.5,0.249269,1.00026,5.69101,4.69119,6.69083,1.00008
1.51,0.249785,1.00025,5.68851,4.68869,6.68836,1.00009
1.52,0.250033,1.00024,5.68601,4.68619,6.68588,1.00009
1.53,0.250072,1.00023,5.68351,4.68369,6.68337,1.00007
1.54,0.250127,1.00022,5.68101,4.68117,6.68085,1.00006
1.55,0.250257,1.00023,5.67851,4.67868,6.67835,1.00006
1.56,0.250554,1.00025,5.67601,4.67619,6.67584,1.00008
1.57,0.251036,1.00025,5.6735,4.67368,6.67335,1.00009
1.58,0.251367,1.00024,5.67099,4.67117,6.67086,1.00009
1.59,0.2514,1.00023,5.66848,4.66865,6.66835,1.00008
1.6,0.251436,1.00022,5.66596,4.66612,6.66581,1.00006
1.61,0.251539,1.00022,5.66345,4.66361,6.66329,1.00006
1.62,0.251742,1.00025,5.66093,4.6611,6.66076,1.00008
1.63,0.252174,1.00025,5.65842,4.65859,6.65826,1.00009
1.64,0.252587,1.00025,5.65589,4.65607,6.65575,1.00009
1.65,0.252607,1.00024,5.65337,4.65355,6.65323,1.00008
1.66,0.252635,1.00023,5.65084,4.65101,6.65069,1.00007
1.67,0.252704,1.00023,5.64832,4.64849,6.64815,1.00006
1.68,0.252866,1.00025,5.64579,4.64597,6.64562,1.00008
1.69,0.253245,1.00026,5.64326,4.64345,6.64309,1.00008
1.7,0.25373,1.00026,5.64073,4.64092,6.64058,1.00009
1.71,0.253715,1.00026,5.63819,4.6384,6.63805,1.00008
1.72,0.253736,1.00025,5.63565,4.63585,6.63549,1.00007
1.73,0.253738,1.00024,5.63312,4.63331,6.63294,1.00006
1.74,0.253826,1.00026,5.63058,4.63078,6.6304,1.00008
1.75,0.254114,1.00027,5.62804,4.62824,6.62787,1.00009
1.76,0.254556,1.00026,5.6255,4.62569,6.62536,1.00009
1.77,0.254609,1.00026,5.62295,4.62315,6.62282,1.00009
1.78,0.254553,1.00024,5.62041,4.6206,6.62026,1.00007
1.79,0.254544,1.00022,5.61786,4.61804,6.61771,1.00005
1.8,0.254646,1.00025,5.61532,4.6155,6.61516,1.00007
1.81,0.254975,1.00026,5.61277,4.61296,6.61262,1.00008
1.82,0.255432,1.00025,5.61022,4.61041,6.61009,1.00009
1.83,0.255577,1.00024,5.60766,4.60785,6.60755,1.00009
1.84,0.255579,1.00023,5.60511,4.60528,6.60498,1.00007
1.85,0.255585,1.00021,5.60255,4.60271,6.6024,1.00006
1.86,0.255691,1.00023,5.6,4.60016,6.59984,1.00007
1.87,0.255959,1.00025,5.59744,4.59762,6.59727,1.00008
1.88,0.256418,1.00026,5.59488,4.59506,6.59473,1.00009
1.89,0.256607,1.00025,5.59231,4.5925,6.59217,1.00009
1.9,0.256609,1.00025,5.58975,4.58994,6.5896,1.00008
1.91,0.256614,1.00023,5.58718,4.58736,6.58701,1.00006
1.92,0.256699,1.00025,5.58462,4.5848,6.58444,1.00007
1.93,0.256947,1.00028,5.58205,4.58225,6.58187,1.00009
1.94,0.257384,1.00028,5.57948,4.57968,6.57931,1.00009
1.95,0.257615,1.00027,5.57691,4.57711,6.57675,1.00009
1.96,0.257598,1.00026,5.57433,4.57453,6.57417,1.00008
1.97,0.257607,1.00025,5.57175,4.57194,6.57157,1.00006
1.98,0.257674,1.00026,5.56918,4.56937,6.56899,1.00007
1.99,0.257895,1.00028,5.5666,4.56679,6.56641,1.00009
2,0.258314,1.00027,5.56402,4.56421,6.56385,1.00009
2.01,0.25858,1.00026,5.56144,4.56163,6.56129,1.00009
2.02,0.258547,1.00025,5.55885,4.55904,6.5587,1.00008
2.03,0.25852,1.00024,5.55627,4.55644,6.5561,1.00006
2.04,0.258574,1.00025,5.55368,4.55386,6.55351,1.00007
2.05,0.258783,1.00027,5.5511,4.55129,6.55092,1.00008
2.06,0.25921,1.00027,5.54851,4.5487,6.54835,1.00009
2.07,0.259471,1.00026,5.54592,4.54611,6.54577,1.00009
2.08,0.259432,1.00025,5.54332,4.54351,6.54318,1.00008
2.09,0.259408,1.00023,5.54073,4.5409,6.54056,1.00007
2.1,0.259447,1.00025,5.53813,4.53831,6.53796,1.00007
2.11,0.259629,1.00027,5.53554,4.53572,6.53536,1.00008
2.12,0.260024,1.00027,5.53294,4.53313,6.53277,1.00009
2.13,0.260288,1.00026,5.53034,4.53054,6.53019,1.00009
2.14,0.260234,1.00025,5.52774,4.52794,6.52759,1.00008
2.15,0.260177,1.00024,5.52514,4.52532,6.52497,1.00006
2.16,0.260194,1.00025,5.52254,4.52273,6.52236,1.00007
2.17,0.260358,1.00028,5.51994,4.52014,6.51975,1.00008
2.18,0.260728,1.00028,5.51733,4.51754,6.51716,1.00009
2.19,0.260971,1.00028,5.51472,4.51494,6.51457,1.00009
2.2,0.260728,1.00028,5.51212,4.51234,6.51196,1.00008
2.21,0.260718,1.00026,5.50951,4.50972,6.50933,1.00007
2.22,0.260726,1.00028,5.5069,4.50711,6.50671,1.00008
2.23,0.260873,1.0003,5.50429,4.50452,6.5041,1.00009
2.24,0.261212,1.0003,5.50169,4.50191,6.50151,1.0001
2.25,0.261468,1.00029,5.49907,4.4993,6.49891,1.0001
2.26,0.261361,1.00029,5.49646,4.4967,6.4963,1.00009
2.27,0.261272,1.00027,5.49385,4.49407,6.49367,1.00007
2.28,0.261264,1.00028,5.49123,4.49145,6.49106,1.00008
2.29,0.26144,1.00029,5.48862,4.48884,6.48845,1.00009
2.3,0.261828,1.00028,5.48601,4.48622,6.48586,1.0001
2.31,0.262069,1.00027,5.48339,4.4836,6.48326,1.0001
2.32,0.262016,1.00025,5.48077,4.48097,6.48064,1.00008
2.33,0.261995,1.00023,5.47815,4.47833,6.478,1.00007
2.34,0.262034,1.00025,5.47553,4.47571,6.47536,1.00007
2.35,0.262231,1.00027,5.47291,4.4731,6.47274,1.00009
2.36,0.262634,1.00027,5.47028,4.47048,6.47012,1.00009
2.37,0.262865,1.00027,5.46766,4.46786,6.46751,1.00009
2.38,0.262833,1.00027,5.46503,4.46524,6.46487,1.00008
2.39,0.262822,1.00026,5.4624,4.4626,6.46222,1.00007
2.4,0.26287,1.00028,5.45977,4.45997,6.45958,1.00008
2.41,0.263089,1.0003,5.45715,4.45736,6.45695,1.00009
2.42,0.263498,1.00031,5.45451,4.45473,6.45433,1.0001
2.43,0.263704,1.0003,5.45188,4.4521,6.4517,1.0001
2.44,0.263648,1.00029,5.44924,4.44947,6.44906,1.00009
2.45,0.263631,1.00028,5.44661,4.44682,6.44641,1.00007
2.46,0.263666,1.0003,5.44397,4.44418,6.44376,1.00009
2.47,0.263883,1.00031,5.44133,4.44155,6.44113,1.0001
2.48,0.264279,1.0003,5.43869,4.43891,6.43851,1.0001
2.49,0.264447,1.00029,5.43605,4.43626,6.43588,1.0001
2.5,0.264366,1.00028,5.43341,4.43362,6.43323,1.00009
2.51,0.264317,1.00026,5.43076,4.43096,6.43057,1.00007
2.52,0.26435,1.00028,5.42812,4.42832,6.42793,1.00009
2.53,0.264597,1.0003,5.42548,4.42569,6.42529,1.0001
2.54,0.264998,1.00029,5.42283,4.42304,6.42266,1.0001
2.55,0.265091,1.00028,5.42018,4.42039,6.42002,1.0001
2.56,0.265012,1.00027,5.41753,4.41773,6.41736,1.00009
2.57,0.26496,1.00025,5.41488,4.41507,6.4147,1.00007
2.58,0.264994,1.00028,5.41223,4.41243,6.41204,1.00009
2.59,0.26523,1.0003,5.40958,4.40979,6.40939,1.0001
2.6,0.265642,1.00029,5.40693,4.40714,6.40675,1.0001
2.61,0.265665,1.00029,5.40427,4.40449,6.40411,1.0001
2.62,0.265582,1.00027,5.40162,4.40183,6.40144,1.00008
2.63,0.265515,1.00026,5.39896,4.39916,6.39877,1.00007
2.64,0.265566,1.00029,5.39631,4.39652,6.39611,1.00009
2.65,0.265817,1.00031,5.39365,4.39388,6.39346,1.0001
2.66,0.266222,1.00031,5.39099,4.39122,6.39082,1.0001
2.67,0.266162,1.0003,5.38833,4.38857,6.38816,1.00009
2.68,0.266074,1.00029,5.38567,4.3859,6.38548,1.00008
2.69,0.266012,1.00029,5.38301,4.38323,6.38281,1.00007
2.7,0.266033,1.00031,5.38035,4.38058,6.38014,1.00009
2.71,0.266283,1.00032,5.37769,4.37792,6.3775,1.0001
2.72,0.266649,1.00031,5.37503,4.37526,6.37486,1.00011
2.73,0.266536,1.0003,5.37236,4.3726,6.37219,1.0001
2.74,0.266405,1.00028,5.3697,4.36992,6.36952,1.00008
2.75,0.266338,1.00028,5.36704,4.36725,6.36685,1.00008
2.76,0.266429,1.0003,5.36437,4.3646,6.36418,1.0001
2.77,0.266773,1.00031,5.36171,4.36194,6.36153,1.0001
2.78,0.267122,1.00029,5.35904,4.35926,6.35889,1.0001
2.79,0.267046,1.00028,5.35637,4.35659,6.35622,1.00009
2.8,0.266972,1.00026,5.3537,4.3539,6.35353,1.00008
2.81,0.266972,1.00027,5.35103,4.35122,6.35085,1.00008
2.82,0.267078,1.00029,5.34836,4.34856,6.34817,1.00009
2.83,0.267429,1.0003,5.34569,4.3459,6.3455,1.0001
2.84,0.267693,1.00029,5.34301,4.34323,6.34285,1.0001
2.85,0.267621,1.00029,5.34034,4.34056,6.34017,1.00009
2.86,0.267547,1.00027,5.33766,4.33787,6.33747,1.00008
2.87,0.267548,1.00029,5.33499,4.3352,6.33478,1.00008
2.88,0.267697,1.00031,5.33231,4.33254,6.3321,1.0001
2.89,0.268069,1.00032,5.32964,4.32986,6.32944,1.0001
2.9,0.268247,1.00031,5.32695,4.32719,6.32677,1.0001
2.91,0.268157,1.0003,5.32427,4.32451,6.32408,1.00009
2.92,0.268094,1.00029,5.32159,4.32181,6.32138,1.00007
2.93,0.268104,1.00031,5.31891,4.31913,6.31869,1.00009
2.94,0.268288,1.00032,5.31623,4.31645,6.31602,1.0001
2.95,0.268671,1.00031,5.31355,4.31377,6.31336,1.00011
2.96,0.268765,1.0003,5.31086,4.31108,6.31068,1.0001
2.97,0.268655,1.00029,5.30817,4.3084,6.30799,1.00009
2.98,0.268575,1.00028,5.30549,4.3057,6.30529,1.00007
2.99,0.268601,1.0003,5.3028,4.30301,6.3026,1.00009
3,0.268846,1.00032,5.30012,4.30034,6.29992,1.0001
3.01,0.269236,1.00031,5.29743,4.29765,6.29725,1.00011
3.02,0.269218,1.0003,5.29474,4.29496,6.29457,1.0001
3.03,0.269121,1.00028,5.29204,4.29226,6.29186,1.00009
3.04,0.269047,1.00028,5.28935,4.28955,6.28916,1.00008
3.05,0.269088,1.0003,5.28666,4.28687,6.28646,1.0001
3.06,0.269346,1.00031,5.28397,4.28419,6.28377,1.0001
3.07,0.269741,1.00031,5.28128,4.2815,6.2811,1.00011
3.08,0.269614,1.0003,5.27858,4.27881,6.27841,1.0001
3.09,0.269497,1.00029,5.27589,4.27611,6.2757,1.00008
3.1,0.269431,1.00029,5.27319,4.27341,6.27299,1.00008
3.11,0.269482,1.00032,5.2705,4.27073,6.27029,1.0001
3.12,0.269776,1.00033,5.26781,4.26805,6.2676,1.00011
3.13,0.270045,1.00032,5.26511,4.26536,6.26492,1.0001
3.14,0.269867,1.00032,5.26241,4.26267,6.26222,1.0001
3.15,0.269753,1.00031,5.25971,4.25996,6.25951,1.00008
3.16,0.269685,1.00032,5.25701,4.25726,6.2568,1.00009
3.17,0.269744,1.00034,5.25432,4.25457,6.2541,1.00011
3.18,0.270026,1.00034,5.25162,4.25187,6.25142,1.00011
3.19,0.27018,1.00033,5.24892,4.24918,6.24873,1.00011
3.2,0.270014,1.00032,5.24622,4.24648,6.24603,1.0001
3.21,0.269878,1.0003,5.24352,4.24376,6.24332,1.00008
3.22,0.269833,1.00032,5.24082,4.24106,6.24062,1.0001
3.23,0.270026,1.00033,5.23812,4.23837,6.23793,1.00011
3.24,0.270399,1.00032,5.23542,4.23567,6.23525,1.00011
3.25,0.27047,1.0003,5.23272,4.23296,6.23256,1.00011
3.26,0.270375,1.00029,5.23001,4.23024,6.22985,1.00009
3.27,0.270294,1.00028,5.22731,4.22752,6.22712,1.00008
3.28,0.270323,1.00031,5.22461,4.22482,6.22441,1.0001
3.29,0.270542,1.00032,5.22191,4.22213,6.2217,1.00011
3.3,0.270944,1.00032,5.2192,4.21943,6.21901,1.00011
3.31,0.270898,1.00031,5.21649,4.21673,6.21631,1.0001
3.32,0.270818,1.00031,5.21378,4.21402,6.21358,1.00009
3.33,0.270753,1.00031,5.21108,4.2113,6.21086,1.00009
3.34,0.270823,1.00034,5.20837,4.2086,6.20814,1.0001
3.35,0.271105,1.00035,5.20566,4.20591,6.20544,1.00011
3.36,0.271471,1.00034,5.20295,4.2032,6.20274,1.00011
3.37,0.271345,1.00033,5.20023,4.20049,6.20003,1.0001
3.38,0.271256,1.00032,5.19752,4.19777,6.1973,1.00009
3.39,0.271223,1.00033,5.19481,4.19505,6.19458,1.00009
3.4,0.271316,1.00035,5.1921,4.19234,6.19186,1.00011
3.41,0.271631,1.00035,5.18938,4.18963,6.18917,1.00012
3.42,0.27187,1.00033,5.18667,4.18691,6.18647,1.00011
3.43,0.271742,1.00032,5.18395,4.1842,6.18375,1.0001
3.44,0.271627,1.00031,5.18123,4.18146,6.18102,1.00008
3.45,0.271598,1.00032,5.17852,4.17874,6.1783,1.0001
3.46,0.271755,1.00034,5.1758,4.17604,6.17558,1.00011
3.47,0.27211,1.00034,5.17308,4.17333,6.17288,1.00011
3.48,0.272194,1.00032,5.17036,4.17061,6.17018,1.00011
3.49,0.272068,1.00031,5.16764,4.16788,6.16745,1.0001
3.5,0.271962,1.0003,5.16492,4.16514,6.16471,1.00008
3.51,0.271954,1.00032,5.1622,4.16243,6.16198,1.0001
3.52,0.272147,1.00034,5.15948,4.15972,6.15926,1.00011
3.53,0.272524,1.00034,5.15676,4.157,6.15656,1.00011
3.54,0.272464,1.00033,5.15404,4.15429,6.15385,1.00011
3.55,0.272337,1.00031,5.15131,4.15155,6.15111,1.00009
3.56,0.272238,1.00031,5.14859,4.14882,6.14838,1.00009
3.57,0.272261,1.00034,5.14587,4.14611,6.14565,1.00011
3.58,0.272515,1.00035,5.14315,4.1434,6.14293,1.00011
3.59,0.272837,1.00035,5.14042,4.14069,6.14022,1.00011
3.6,0.272674,1.00034,5.1377,4.13797,6.1375,1.0001
3.61,0.272549,1.00033,5.13497,4.13523,6.13475,1.00009
3.62,0.272437,1.00034,5.13225,4.1325,6.13201,1.0001
3.63,0.272458,1.00036,5.12952,4.12978,6.12929,1.00011
3.64,0.272711,1.00035,5.1268,4.12706,6.12659,1.00012
3.65,0.272877,1.00034,5.12407,4.12434,6.12388,1.00011
3.66,0.272687,1.00033,5.12134,4.12161,6.12115,1.0001
3.67,0.272524,1.00031,5.11862,4.11887,6.11841,1.00009
3.68,0.272459,1.00033,5.11589,4.11614,6.11568,1.0001
3.69,0.272621,1.00034,5.11317,4.11342,6.11296,1.00011
3.7,0.272967,1.00034,5.11044,4.1107,6.11025,1.00012
3.71,0.273018,1.00032,5.10771,4.10796,6.10754,1.00011
3.72,0.272912,1.00031,5.10498,4.10522,6.1048,1.0001
3.73,0.272819,1.0003,5.10225,4.10248,6.10205,1.00008
3.74,0.272822,1.00032,5.09953,4.09975,6.09931,1.0001
