time,velocity,ratio,centerX,Xmax,Xmin,Ymax
0,0,1,4.75,3.75,5.75,1
0.01,0.0185948,1,4.74991,3.74991,5.7499,1
0.02,0.0348623,1.00002,4.74964,3.74965,5.74962,1
0.03,0.049192,1.00004,4.74923,3.74924,5.74918,1.00001
0.04,0.0618985,1.00006,4.74867,3.74869,5.74859,1.00001
0.05,0.0732841,1.00009,4.748,3.74803,5.74788,1.00002
0.06,0.0835059,1.00013,4.74722,3.74726,5.74705,1.00002
0.07,0.0927185,1.00017,4.74634,3.7464,5.74612,1.00003
0.08,0.101068,1.00021,4.74537,3.74545,5.74511,1.00003
0.09,0.108655,1.00025,4.74433,3.74443,5.74402,1.00004
0.1,0.11558,1.00029,4.74321,3.74334,5.74285,1.00004
0.11,0.121916,1.00034,4.74202,3.74219,5.74162,1.00005
0.12,0.127763,1.0004,4.74077,3.74098,5.74033,1.00008
0.13,0.133172,1.00047,4.73947,3.73971,5.73899,1.00011
0.14,0.13818,1.00053,4.73812,3.73839,5.7376,1.00013
0.15,0.142817,1.00058,4.73671,3.73703,5.73617,1.00015
0.16,0.147111,1.00064,4.73527,3.73562,5.7347,1.00018
0.17,0.151105,1.0007,4.73378,3.73418,5.73318,1.0002
0.18,0.154838,1.00077,4.73225,3.73269,5.73161,1.00023
0.19,0.158339,1.00084,4.73068,3.73117,5.72999,1.00025
0.2,0.161624,1.00091,4.72909,3.72961,5.72832,1.00027
0.21,0.164703,1.00099,4.72746,3.72802,5.72662,1.00029
0.22,0.167603,1.00107,4.7258,3.7264,5.72488,1.00031
0.23,0.170344,1.00118,4.72411,3.72476,5.7231,1.00035
0.24,0.172962,1.00129,4.72239,3.7231,5.7213,1.00039
0.25,0.175441,1.0014,4.72065,3.72141,5.71947,1.00043
0.26,0.177774,1.00151,4.71889,3.71971,5.71762,1.00046
0.27,0.17999,1.00163,4.7171,3.71798,5.71573,1.0005
0.28,0.182148,1.00174,4.71529,3.71623,5.71381,1.00053
0.29,0.1842,1.00186,4.71346,3.71446,5.71186,1.00056
0.3,0.186141,1.00198,4.71161,3.71267,5.70989,1.00059
0.31,0.187992,1.00209,4.70974,3.71086,5.7079,1.00061
0.32,0.189763,1.00223,4.70785,3.70903,5.7059,1.00066
0.33,0.191497,1.00236,4.70595,3.70719,5.70388,1.0007
0.34,0.193152,1.00249,4.70403,3.70534,5.70185,1.00074
0.35,0.194745,1.00263,4.70209,3.70347,5.69979,1.00078
0.36,0.196273,1.00276,4.70013,3.70158,5.69771,1.00082
0.37,0.197728,1.00289,4.69816,3.69967,5.69561,1.00085
0.38,0.19912,1.00301,4.69618,3.69775,5.6935,1.00088
0.39,0.200465,1.00312,4.69418,3.6958,5.69138,1.00091
0.4,0.201769,1.00325,4.69217,3.69384,5.68925,1.00095
0.41,0.203036,1.00338,4.69015,3.69187,5.68712,1.001
0.42,0.204271,1.00352,4.68812,3.68989,5.68495,1.00104
0.43,0.205458,1.00366,4.68607,3.6879,5.68277,1.00108
0.44,0.206606,1.00379,4.68401,3.6859,5.68058,1.00112
0.45,0.207693,1.00392,4.68194,3.6839,5.67839,1.00116
0.46,0.208763,1.00404,4.67986,3.68188,5.6762,1.00118
0.47,0.209796,1.00415,4.67777,3.67985,5.67401,1.00121
0.48,0.210807,1.00427,4.67566,3.67781,5.67183,1.00127
0.49,0.211802,1.0044,4.67355,3.67577,5.66963,1.00132
0.5,0.212782,1.00453,4.67143,3.67372,5.66742,1.00136
0.51,0.213731,1.00466,4.6693,3.67166,5.66519,1.00141
0.52,0.214655,1.00478,4.66716,3.66959,5.66294,1.00144
0.53,0.215523,1.0049,4.66501,3.6675,5.66069,1.00148
0.54,0.216367,1.00501,4.66285,3.66541,5.65844,1.0015
0.55,0.217198,1.00513,4.66068,3.66331,5.65619,1.00155
0.56,0.21801,1.00526,4.65851,3.66121,5.65392,1.0016
0.57,0.218786,1.0054,4.65632,3.6591,5.65164,1.00165
0.58,0.21955,1.00553,4.65413,3.65699,5.64935,1.00169
0.59,0.220321,1.00566,4.65193,3.65487,5.64705,1.00173
0.6,0.221063,1.00578,4.64973,3.65274,5.64475,1.00176
0.61,0.221774,1.00589,4.64751,3.6506,5.64244,1.00179
0.62,0.222493,1.00601,4.64529,3.64846,5.64014,1.00182
0.63,0.223196,1.00615,4.64307,3.64632,5.63783,1.00188
0.64,0.223905,1.00628,4.64083,3.64418,5.63551,1.00192
0.65,0.224566,1.00642,4.63859,3.64203,5.63317,1.00196
0.66,0.225137,1.00655,4.63634,3.63988,5.63083,1.002
0.67,0.225639,1.00667,4.63409,3.63772,5.6285,1.00202
0.68,0.226175,1.00676,4.63183,3.63553,5.62617,1.00205
0.69,0.226714,1.00686,4.62957,3.63334,5.62384,1.00208
0.7,0.227257,1.00699,4.6273,3.63113,5.62147,1.00213
0.71,0.227786,1.0071,4.62502,3.62891,5.61911,1.00217
0.72,0.228318,1.0072,4.62275,3.62668,5.61676,1.0022
0.73,0.228829,1.00728,4.62046,3.62445,5.61443,1.00223
0.74,0.229336,1.00736,4.61817,3.62224,5.61211,1.00226
0.75,0.229819,1.00742,4.61588,3.62001,5.6098,1.00228
0.76,0.230306,1.00749,4.61358,3.61778,5.60749,1.00231
0.77,0.230818,1.00758,4.61127,3.61554,5.60516,1.00235
0.78,0.231365,1.00767,4.60896,3.61329,5.60282,1.00239
0.79,0.231915,1.00776,4.60665,3.61104,5.60046,1.00242
0.8,0.232436,1.00784,4.60432,3.60878,5.59809,1.00245
0.81,0.232933,1.00791,4.602,3.6065,5.59572,1.00247
0.82,0.233417,1.00796,4.59967,3.60422,5.59335,1.00248
0.83,0.233914,1.00805,4.59733,3.60193,5.59096,1.00252
0.84,0.234387,1.00815,4.59499,3.59964,5.58856,1.00256
0.85,0.23486,1.00824,4.59265,3.59734,5.58615,1.0026
0.86,0.23532,1.00833,4.5903,3.59505,5.58373,1.00262
0.87,0.235788,1.00841,4.58794,3.59275,5.58131,1.00264
0.88,0.236245,1.00848,4.58558,3.59044,5.57889,1.00266
0.89,0.236712,1.00855,4.58322,3.58812,5.57648,1.00268
0.9,0.23719,1.00865,4.58085,3.5858,5.57404,1.00272
0.91,0.237673,1.00874,4.57848,3.58348,5.5716,1.00275
0.92,0.238108,1.00883,4.5761,3.58115,5.56915,1.00278
0.93,0.238517,1.00892,4.57372,3.57883,5.5667,1.0028
0.94,0.23879,1.00899,4.57133,3.57649,5.56425,1.00282
0.95,0.239264,1.00904,4.56894,3.57414,5.56181,1.00282
0.96,0.239742,1.00913,4.56655,3.57178,5.55934,1.00285
0.97,0.240196,1.00922,4.56415,3.56941,5.55686,1.00289
0.98,0.240645,1.0093,4.56174,3.56704,5.55439,1.00292
0.99,0.241075,1.00936,4.55934,3.56466,5.55193,1.00294
1,0.241474,1.00942,4.55692,3.56228,5.54947,1.00296
1.01,0.241873,1.00946,4.55451,3.55991,5.54703,1.00297
1.02,0.24224,1.00951,4.55209,3.55752,5.54459,1.00298
1.03,0.242602,1.00959,4.54967,3.55514,5.54213,1.00302
1.04,0.242953,1.00966,4.54724,3.55276,5.53967,1.00305
1.05,0.243366,1.00973,4.54481,3.55037,5.53719,1.00308
1.06,0.243727,1.0098,4.54237,3.54798,5.53471,1.0031
1.07,0.244086,1.00985,4.53993,3.54559,5.53224,1.00311
1.08,0.244398,1.00989,4.53749,3.54319,5.52977,1.00312
1.09,0.244706,1.00997,4.53505,3.54079,5.52729,1.00316
1.1,0.245003,1.01005,4.5326,3.53838,5.5248,1.00319
1.11,0.245325,1.01013,4.53015,3.53598,5.5223,1.00322
1.12,0.245615,1.0102,4.5277,3.53358,5.5198,1.00324
1.13,0.24594,1.01026,4.52524,3.53118,5.51731,1.00325
1.14,0.246231,1.01031,4.52278,3.52877,5.51482,1.00326
1.15,0.246539,1.01037,4.52032,3.52636,5.51233,1.00328
1.16,0.246846,1.01046,4.51785,3.52396,5.50982,1.00332
1.17,0.247156,1.01055,4.51538,3.52156,5.50731,1.00335
1.18,0.247402,1.01063,4.51291,3.51916,5.5048,1.00337
1.19,0.247613,1.0107,4.51043,3.51676,5.50229,1.00338
1.2,0.247848,1.01076,4.50796,3.51437,5.4998,1.00339
1.21,0.248518,1.01084,4.50548,3.51197,5.49725,1.0034
1.22,0.248804,1.01093,4.50299,3.50954,5.49471,1.00344
1.23,0.249033,1.01101,4.5005,3.50711,5.4922,1.00347
1.24,0.249246,1.01105,4.49801,3.50466,5.4897,1.00349
1.25,0.249459,1.01108,4.49552,3.50221,5.48723,1.00351
1.26,0.249608,1.01108,4.49302,3.49974,5.48478,1.00352
1.27,0.249869,1.0111,4.49053,3.49732,5.48233,1.00352
1.28,0.250104,1.01115,4.48803,3.49489,5.47986,1.00356
1.29,0.250361,1.01121,4.48553,3.49244,5.47737,1.00359
1.3,0.250693,1.01126,4.48302,3.48999,5.47487,1.00361
1.31,0.25101,1.01131,4.48051,3.48753,5.47235,1.00363
1.32,0.251323,1.01134,4.478,3.48507,5.46984,1.00364
1.33,0.251611,1.01137,4.47549,3.48259,5.46732,1.00365
1.34,0.25191,1.01143,4.47297,3.48011,5.46478,1.00368
1.35,0.252186,1.01149,4.47045,3.47761,5.46222,1.00371
1.36,0.252475,1.01155,4.46793,3.47512,5.45966,1.00373
1.37,0.252747,1.01161,4.4654,3.47263,5.45709,1.00375
1.38,0.253007,1.01166,4.46288,3.47013,5.45452,1.00376
1.39,0.253272,1.0117,4.46035,3.46764,5.45196,1.00377
1.4,0.253568,1.01176,4.45781,3.46514,5.44938,1.00379
1.41,0.253875,1.01183,4.45528,3.46263,5.44679,1.00382
1.42,0.254162,1.0119,4.45274,3.46012,5.44419,1.00384
1.43,0.254423,1.01196,4.45019,3.45761,5.4416,1.00386
1.44,0.254666,1.01202,4.44765,3.4551,5.439,1.00387
1.45,0.254931,1.01206,4.4451,3.45259,5.43642,1.00387
1.46,0.255208,1.01212,4.44255,3.45007,5.4338,1.00389
1.47,0.255484,1.0122,4.44,3.44753,5.43118,1.00392
1.48,0.255752,1.01226,4.43744,3.44499,5.42857,1.00394
1.49,0.25601,1.0123,4.43489,3.44245,5.42596,1.00396
1.5,0.256255,1.01234,4.43233,3.4399,5.42337,1.00397
1.51,0.256485,1.01235,4.42976,3.43735,5.4208,1.00397
1.52,0.256699,1.01239,4.4272,3.43481,5.41822,1.00399
1.53,0.256894,1.01245,4.42463,3.43227,5.41562,1.00402
1.54,0.257105,1.0125,4.42206,3.42972,5.41301,1.00404
1.55,0.257325,1.01255,4.41949,3.42718,5.41041,1.00406
1.56,0.257549,1.01259,4.41692,3.42463,5.4078,1.00407
1.57,0.257745,1.01262,4.41434,3.42209,5.40521,1.00408
1.58,0.257925,1.01266,4.41176,3.41954,5.4026,1.00409
1.59,0.258091,1.01273,4.40918,3.41698,5.39999,1.00412
1.6,0.258276,1.01278,4.4066,3.41443,5.39737,1.00414
1.61,0.258453,1.01284,4.40402,3.41187,5.39474,1.00416
1.62,0.258624,1.01288,4.40144,3.40932,5.39213,1.00417
1.63,0.258802,1.01291,4.39885,3.40678,5.38953,1.00417
1.64,0.259001,1.01295,4.39626,3.40423,5.38691,1.00418
1.65,0.259198,1.01302,4.39367,3.40167,5.38429,1.00421
1.66,0.259396,1.01308,4.39108,3.39912,5.38166,1.00423
1.67,0.259542,1.01314,4.38848,3.39657,5.37903,1.00425
1.68,0.25967,1.01318,4.38589,3.39403,5.37641,1.00426
1.69,0.259799,1.01322,4.38329,3.39149,5.3738,1.00426
1.7,0.259962,1.01328,4.38069,3.38895,5.37114,1.00426
1.71,0.260114,1.01336,4.3781,3.38639,5.3685,1.00429
1.72,0.260279,1.01341,4.37549,3.38382,5.36588,1.00432
1.73,0.260426,1.01344,4.37289,3.38124,5.36327,1.00433
1.74,0.260581,1.01345,4.37029,3.37865,5.36068,1.00434
1.75,0.260715,1.01344,4.36768,3.37606,5.35811,1.00434
1.76,0.260865,1.01345,4.36507,3.37348,5.35552,1.00435
1.77,0.26098,1.0135,4.36247,3.37091,5.35291,1.00438
1.78,0.261127,1.01354,4.35986,3.36833,5.35029,1.0044
1.79,0.261327,1.01358,4.35724,3.36576,5.34767,1.00442
1.8,0.261548,1.01362,4.35463,3.36318,5.34504,1.00443
1.81,0.261735,1.01364,4.35201,3.36059,5.34242,1.00443
1.82,0.261931,1.01367,4.3494,3.358,5.33978,1.00443
1.83,0.262082,1.01372,4.34678,3.3554,5.33713,1.00446
1.84,0.262267,1.01377,4.34416,3.35279,5.33447,1.00448
1.85,0.262428,1.01382,4.34153,3.35019,5.3318,1.0045
1.86,0.262568,1.01386,4.33891,3.34758,5.32914,1.00451
1.87,0.262741,1.01388,4.33628,3.34498,5.32649,1.00451
1.88,0.262912,1.01392,4.33366,3.34238,5.32383,1.00451
1.89,0.263124,1.01398,4.33103,3.33977,5.32115,1.00454
1.9,0.263293,1.01404,4.3284,3.33716,5.31847,1.00456
1.91,0.263474,1.01409,4.32576,3.33455,5.31579,1.00458
1.92,0.263625,1.01412,4.32313,3.33194,5.31313,1.00458
1.93,0.263796,1.01416,4.32049,3.32933,5.31045,1.00458
1.94,0.263973,1.01421,4.31785,3.32672,5.30775,1.00459
1.95,0.264169,1.01427,4.31521,3.32409,5.30506,1.00461
1.96,0.26434,1.01431,4.31257,3.32145,5.30237,1.00463
1.97,0.264527,1.01434,4.30993,3.31881,5.2997,1.00465
1.98,0.264682,1.01435,4.30728,3.31617,5.29705,1.00465
1.99,0.264837,1.01435,4.30464,3.31352,5.2944,1.00465
2,0.264958,1.01437,4.30199,3.31089,5.29173,1.00466
2.01,0.265088,1.01442,4.29934,3.30826,5.28906,1.00468
2.02,0.265213,1.01446,4.29669,3.30562,5.28638,1.0047
2.03,0.265345,1.01449,4.29404,3.30298,5.28371,1.00472
2.04,0.26549,1.01451,4.29138,3.30035,5.28104,1.00472
2.05,0.265609,1.01453,4.28873,3.29772,5.27838,1.00472
2.06,0.265702,1.01457,4.28607,3.29509,5.2757,1.00473
2.07,0.265821,1.01462,4.28342,3.29245,5.27301,1.00476
2.08,0.265937,1.01466,4.28076,3.2898,5.27032,1.00478
2.09,0.266078,1.0147,4.2781,3.28717,5.26764,1.00479
2.1,0.266153,1.01472,4.27544,3.28454,5.26497,1.00479
2.11,0.266286,1.01474,4.27278,3.28191,5.26229,1.00479
2.12,0.266399,1.01479,4.27011,3.27928,5.2596,1.0048
2.13,0.266526,1.01484,4.26745,3.27665,5.25691,1.00483
2.14,0.266596,1.01489,4.26478,3.27403,5.25422,1.00484
2.15,0.266664,1.01493,4.26212,3.27141,5.25154,1.00485
2.16,0.266721,1.01496,4.25945,3.26879,5.24887,1.00485
2.17,0.266774,1.01501,4.25679,3.26619,5.24615,1.00484
2.18,0.266818,1.01508,4.25412,3.26359,5.24345,1.00486
2.19,0.266887,1.01513,4.25145,3.26097,5.24078,1.00489
2.2,0.266941,1.01515,4.24878,3.25833,5.23813,1.0049
2.21,0.266996,1.01515,4.24611,3.25569,5.2355,1.00491
2.22,0.267052,1.01513,4.24344,3.25304,5.23289,1.0049
2.23,0.267111,1.01511,4.24077,3.25038,5.23026,1.0049
2.24,0.267182,1.01515,4.2381,3.24776,5.22761,1.00492
2.25,0.267265,1.01519,4.23543,3.24513,5.22495,1.00494
2.26,0.267388,1.01522,4.23276,3.2425,5.22228,1.00496
2.27,0.267532,1.01524,4.23009,3.23986,5.21961,1.00496
2.28,0.267682,1.01525,4.22741,3.23721,5.21694,1.00496
2.29,0.26781,1.01527,4.22473,3.23456,5.21425,1.00496
2.3,0.267919,1.01532,4.22206,3.2319,5.21154,1.00499
2.31,0.268051,1.01536,4.21938,3.22923,5.20883,1.00501
2.32,0.268193,1.0154,4.2167,3.22656,5.20612,1.00502
2.33,0.268291,1.01542,4.21401,3.22389,5.20341,1.00502
2.34,0.268382,1.01544,4.21133,3.22123,5.20071,1.00502
2.35,0.268491,1.01547,4.20865,3.21856,5.19799,1.00503
2.36,0.268636,1.01553,4.20596,3.21589,5.19526,1.00505
2.37,0.26877,1.01558,4.20328,3.21322,5.19252,1.00507
2.38,0.268893,1.01562,4.20059,3.21055,5.1898,1.00508
2.39,0.269,1.01564,4.1979,3.20788,5.18709,1.00508
2.4,0.26912,1.01567,4.19521,3.20521,5.18434,1.00508
2.41,0.269253,1.01572,4.19252,3.20254,5.1816,1.00509
2.42,0.269393,1.01578,4.18983,3.19986,5.17886,1.00511
2.43,0.269528,1.01581,4.18713,3.19717,5.17613,1.00512
2.44,0.269651,1.01583,4.18444,3.19447,5.17342,1.00513
2.45,0.269761,1.01583,4.18174,3.19178,5.17072,1.00513
2.46,0.269856,1.01582,4.17905,3.18908,5.16802,1.00512
2.47,0.269938,1.01585,4.17635,3.18638,5.1653,1.00514
2.48,0.27001,1.01589,4.17365,3.1837,5.16258,1.00516
2.49,0.270083,1.01592,4.17095,3.18101,5.15985,1.00518
2.5,0.270162,1.01595,4.16825,3.17832,5.15714,1.00519
2.51,0.270244,1.01595,4.16555,3.17563,5.15443,1.00519
2.52,0.270307,1.01597,4.16284,3.17295,5.15171,1.00518
2.53,0.270356,1.01602,4.16014,3.17026,5.14898,1.0052
2.54,0.270433,1.01606,4.15744,3.16757,5.14625,1.00522
2.55,0.270524,1.01609,4.15473,3.16488,5.14352,1.00524
2.56,0.270596,1.01611,4.15203,3.1622,5.14081,1.00524
2.57,0.27065,1.01612,4.14932,3.15951,5.1381,1.00524
2.58,0.270737,1.01614,4.14662,3.15684,5.13537,1.00524
2.59,0.270815,1.01619,4.14391,3.15416,5.13264,1.00526
2.6,0.270846,1.01623,4.1412,3.15148,5.12991,1.00528
2.61,0.270851,1.01627,4.1385,3.1488,5.12719,1.00529
2.62,0.270869,1.01628,4.13579,3.14612,5.12449,1.00529
2.63,0.270871,1.01632,4.13308,3.14346,5.12174,1.00528
2.64,0.270913,1.01636,4.13037,3.1408,5.119,1.00529
2.65,0.270943,1.01641,4.12766,3.13813,5.11628,1.00531
2.66,0.270995,1.01644,4.12495,3.13545,5.11358,1.00532
2.67,0.271028,1.01644,4.12224,3.13276,5.1109,1.00533
2.68,0.271067,1.01642,4.11954,3.13006,5.10823,1.00533
2.69,0.271094,1.0164,4.11682,3.12735,5.10556,1.00532
2.7,0.271132,1.01641,4.11411,3.12464,5.10286,1.00534
2.71,0.271154,1.01644,4.1114,3.12197,5.10016,1.00536
2.72,0.27119,1.01647,4.10869,3.11928,5.09744,1.00537
2.73,0.271261,1.01649,4.10598,3.1166,5.09473,1.00538
2.74,0.271352,1.0165,4.10327,3.11391,5.09203,1.00538
2.75,0.271111,1.0165,4.10056,3.11121,5.0893,1.00537
2.76,0.271193,1.01655,4.09785,3.10853,5.08657,1.00539
2.77,0.271261,1.01659,4.09513,3.10583,5.08383,1.00541
2.78,0.27134,1.01662,4.09242,3.10312,5.08109,1.00542
2.79,0.271395,1.01664,4.08971,3.10042,5.07836,1.00543
2.8,0.271438,1.01665,4.087,3.09772,5.07563,1.00542
2.81,0.271497,1.01667,4.08428,3.09502,5.07288,1.00542
2.82,0.271581,1.01673,4.08157,3.09233,5.07013,1.00544
2.83,0.271664,1.01677,4.07885,3.08963,5.06738,1.00546
2.84,0.271743,1.0168,4.07613,3.08692,5.06464,1.00547
2.85,0.271816,1.01682,4.07342,3.08422,5.0619,1.00547
2.86,0.271886,1.01685,4.0707,3.08152,5.05914,1.00547
2.87,0.271981,1.01688,4.06798,3.07883,5.05638,1.00547
2.88,0.27208,1.01694,4.06526,3.07612,5.05362,1.00549
2.89,0.27218,1.01697,4.06254,3.07341,5.05087,1.00551
2.9,0.272263,1.01697,4.05982,3.07068,5.04814,1.00551
2.91,0.272331,1.01697,4.0571,3.06796,5.04543,1.00551
2.92,0.272396,1.01696,4.05437,3.06523,5.04271,1.0055
2.93,0.272444,1.01697,4.05165,3.0625,5.03997,1.00552
2.94,0.272486,1.01701,4.04893,3.05979,5.03723,1.00554
2.95,0.272512,1.01704,4.0462,3.05707,5.03449,1.00555
2.96,0.272555,1.01705,4.04348,3.05436,5.03176,1.00556
2.97,0.272595,1.01705,4.04075,3.05165,5.02903,1.00555
2.98,0.272618,1.01706,4.03803,3.04893,5.02629,1.00554
2.99,0.272628,1.01711,4.0353,3.04623,5.02355,1.00557
3,0.27266,1.01714,4.03258,3.04352,5.0208,1.00559
3.01,0.272716,1.01717,4.02985,3.0408,5.01806,1.0056
3.02,0.272736,1.01718,4.02712,3.03809,5.01533,1.0056
3.03,0.272755,1.01719,4.0244,3.03538,5.0126,1.0056
3.04,0.272793,1.01721,4.02167,3.03268,5.00985,1.0056
3.05,0.272838,1.01726,4.01894,3.02999,5.0071,1.00562
3.06,0.272833,1.0173,4.01622,3.02729,5.00436,1.00564
3.07,0.27283,1.01733,4.01349,3.0246,5.00162,1.00564
3.08,0.272871,1.01735,4.01076,3.02191,4.99889,1.00564
3.09,0.272817,1.01739,4.00803,3.01923,4.99612,1.00564
3.1,0.272766,1.01744,4.00531,3.01656,4.99337,1.00564
3.11,0.272736,1.0175,4.00258,3.0139,4.99064,1.00566
3.12,0.272701,1.01752,3.99985,3.01122,4.98794,1.00568
3.13,0.272668,1.01752,3.99713,3.00853,4.98527,1.00568
3.14,0.272632,1.0175,3.9944,3.00582,4.9826,1.00568
3.15,0.272596,1.01747,3.99167,3.00311,4.97992,1.00567
3.16,0.272566,1.01748,3.98895,3.0004,4.97722,1.00569
3.17,0.272433,1.01752,3.98623,2.99771,4.97451,1.00571
3.18,0.272458,1.01755,3.9835,2.99503,4.97179,1.00573
3.19,0.272523,1.01757,3.98078,2.99235,4.96907,1.00573
3.2,0.2726,1.01759,3.97805,2.98966,4.96635,1.00573
3.21,0.272693,1.0176,3.97533,2.98696,4.96361,1.00573
3.22,0.27274,1.01766,3.9726,2.98426,4.96086,1.00575
3.23,0.272815,1.0177,3.96987,2.98155,4.9581,1.00577
3.24,0.272884,1.01773,3.96715,2.97883,4.95535,1.00578
3.25,0.272935,1.01775,3.96442,2.97611,4.9526,1.00578
3.26,0.272954,1.01777,3.96169,2.9734,4.94985,1.00578
3.27,0.273009,1.0178,3.95896,2.97068,4.94708,1.00579
3.28,0.273053,1.01785,3.95623,2.96797,4.94431,1.00581
3.29,0.27312,1.0179,3.9535,2.96525,4.94153,1.00583
3.3,0.273179,1.01793,3.95077,2.96253,4.93877,1.00583
3.31,0.273241,1.01795,3.94804,2.95981,4.93601,1.00583
3.32,0.27329,1.01798,3.94531,2.95709,4.93322,1.00583
3.33,0.273369,1.01803,3.94257,2.95438,4.93044,1.00584
3.34,0.273441,1.01808,3.93984,2.95166,4.92767,1.00586
3.35,0.273521,1.0181,3.93711,2.94893,4.92491,1.00587
3.36,0.27357,1.01811,3.93437,2.94619,4.92216,1.00588
3.37,0.273628,1.0181,3.93164,2.94345,4.91943,1.00587
3.38,0.27366,1.01809,3.9289,2.94071,4.91668,1.00586
3.39,0.273689,1.01813,3.92617,2.93796,4.91393,1.00589
3.4,0.273705,1.01816,3.92343,2.93523,4.91117,1.00591
3.41,0.273714,1.01818,3.92069,2.9325,4.90841,1.00592
3.42,0.273723,1.01819,3.91796,2.92977,4.90567,1.00592
3.43,0.273732,1.01819,3.91522,2.92704,4.90292,1.00592
3.44,0.273726,1.01821,3.91248,2.92431,4.90017,1.00592
3.45,0.273731,1.01826,3.90975,2.92159,4.8974,1.00594
3.46,0.273743,1.01829,3.90701,2.91886,4.89464,1.00596
3.47,0.273793,1.01831,3.90427,2.91613,4.89189,1.00597
3.48,0.27379,1.01831,3.90154,2.9134,4.88915,1.00597
3.49,0.2738,1.01832,3.8988,2.91068,4.8864,1.00596
3.5,0.273821,1.01835,3.89606,2.90796,4.88364,1.00597
3.51,0.273846,1.01839,3.89332,2.90525,4.88088,1.00599
3.52,0.27382,1.01842,3.89059,2.90253,4.87813,1.006
3.53,0.273793,1.01844,3.88785,2.89981,4.87539,1.006
3.54,0.273756,1.01846,3.88511,2.8971,4.87264,1.006
3.55,0.273723,1.01848,3.88238,2.8944,4.86987,1.00599
3.56,0.273717,1.01853,3.87964,2.8917,4.86711,1.00601
3.57,0.273707,1.01857,3.8769,2.88901,4.86437,1.00602
3.58,0.273711,1.01858,3.87417,2.8863,4.86166,1.00603
3.59,0.273699,1.01857,3.87143,2.88358,4.85896,1.00603
3.6,0.273691,1.01855,3.86869,2.88085,4.85626,1.00603
3.61,0.273671,1.01853,3.86596,2.87811,4.85355,1.00602
3.62,0.273661,1.01855,3.86322,2.87537,4.85082,1.00604
3.63,0.273654,1.01858,3.86049,2.87266,4.84808,1.00606
3.64,0.273641,1.0186,3.85775,2.86994,4.84534,1.00607
3.65,0.273631,1.01861,3.85501,2.86723,4.84261,1.00607
3.66,0.273703,1.01862,3.85228,2.86451,4.83987,1.00607
3.67,0.273735,1.01864,3.84954,2.86179,4.83711,1.00607
3.68,0.273771,1.01869,3.8468,2.85908,4.83435,1.0061
3.69,0.27382,1.01873,3.84407,2.85635,4.83158,1.00611
3.7,0.273867,1.01875,3.84133,2.85361,4.82882,1.00612
3.71,0.273859,1.01876,3.83859,2.85088,4.82607,1.00612
3.72,0.273869,1.01877,3.83585,2.84815,4.82331,1.00611
3.73,0.27388,1.01881,3.83312,2.84542,4.82053,1.00613
3.74,0.273911,1.01886,3.83038,2.8427,4.81775,1.00615
