time,velocity,ratio,centerX,Xmax,Xmin,Ymax
0,0,1,41,40,42,1
0.01,0.0184496,1,40.9999,39.9999,41.9999,1
0.02,0.0344319,1.00001,40.9996,39.9997,41.9996,1
0.03,0.0484967,1.00003,40.9992,39.9993,41.9992,1.00001
0.04,0.0608765,1.00005,40.9987,39.9987,41.9986,1.00001
0.05,0.0719079,1.00007,40.998,39.9981,41.998,1.00002
0.06,0.0817547,1.00008,40.9972,39.9973,41.9972,1.00003
0.07,0.0905907,1.00009,40.9964,39.9965,41.9963,1.00003
0.08,0.0985727,1.0001,40.9954,39.9955,41.9954,1.00003
0.09,0.105818,1.00011,40.9944,39.9945,41.9943,1.00003
0.1,0.112427,1.0001,40.9933,39.9934,41.9933,1.00002
0.11,0.118524,1.0001,40.9922,39.9923,41.9921,1.00001
0.12,0.124175,1.00009,40.991,39.9911,41.9909,1.00001
0.13,0.129408,1.00008,40.9897,39.9898,41.9896,1.00001
0.14,0.13434,1.00007,40.9884,39.9885,41.9883,1.00002
0.15,0.138957,1.00007,40.987,39.9871,41.987,1.00003
0.16,0.143286,1.00007,40.9856,39.9857,41.9856,1.00004
0.17,0.147269,1.00009,40.9841,39.9842,41.9841,1.00004
0.18,0.15085,1.0001,40.9827,39.9827,41.9826,1.00004
0.19,0.154149,1.00011,40.9811,39.9812,41.9811,1.00004
0.2,0.157226,1.00011,40.9796,39.9797,41.9795,1.00003
0.21,0.160092,1.0001,40.978,39.9781,41.9779,1.00002
0.22,0.162824,1.0001,40.9764,39.9765,41.9763,1.00001
0.23,0.165438,1.00011,40.9747,39.9748,41.9747,1.00002
0.24,0.16801,1.00011,40.9731,39.9732,41.973,1.00003
0.25,0.170555,1.00011,40.9714,39.9715,41.9713,1.00004
0.26,0.173036,1.00012,40.9697,39.9698,41.9696,1.00005
0.27,0.175247,1.00014,40.9679,39.968,41.9679,1.00006
0.28,0.177234,1.00015,40.9662,39.9663,41.9661,1.00005
0.29,0.179089,1.00015,40.9644,39.9645,41.9643,1.00005
0.3,0.180838,1.00015,40.9626,39.9627,41.9625,1.00003
0.31,0.182538,1.00015,40.9608,39.9609,41.9606,1.00002
0.32,0.184226,1.00016,40.9589,39.9591,41.9588,1.00003
0.33,0.185965,1.00016,40.9571,39.9572,41.957,1.00004
0.34,0.187744,1.00016,40.9552,39.9553,41.9551,1.00006
0.35,0.189493,1.00016,40.9533,39.9534,41.9533,1.00006
0.36,0.190875,1.00016,40.9514,39.9516,41.9513,1.00006
0.37,0.192155,1.00017,40.9495,39.9496,41.9494,1.00006
0.38,0.193402,1.00016,40.9476,39.9477,41.9475,1.00004
0.39,0.194577,1.00015,40.9456,39.9458,41.9455,1.00003
0.4,0.195805,1.00016,40.9437,39.9438,41.9436,1.00003
0.41,0.197095,1.00016,40.9417,39.9419,41.9416,1.00004
0.42,0.198472,1.00015,40.9398,39.9399,41.9397,1.00005
0.43,0.199871,1.00015,40.9378,39.9379,41.9377,1.00006
0.44,0.200921,1.00016,40.9358,39.9359,41.9357,1.00006
0.45,0.201867,1.00016,40.9338,39.9339,41.9337,1.00005
0.46,0.202757,1.00015,40.9317,39.9318,41.9316,1.00004
0.47,0.203671,1.00014,40.9297,39.9298,41.9296,1.00002
0.48,0.204615,1.00016,40.9277,39.9278,41.9275,1.00004
0.49,0.205722,1.00017,40.9256,39.9257,41.9255,1.00005
0.5,0.206881,1.00017,40.9235,39.9237,41.9235,1.00006
0.51,0.207967,1.00016,40.9215,39.9216,41.9214,1.00007
0.52,0.208726,1.00017,40.9194,39.9195,41.9193,1.00006
0.53,0.209455,1.00016,40.9173,39.9174,41.9172,1.00005
0.54,0.210153,1.00015,40.9152,39.9153,41.9151,1.00004
0.55,0.210906,1.00016,40.9131,39.9132,41.913,1.00003
0.56,0.211715,1.00017,40.911,39.9111,41.9109,1.00005
0.57,0.212699,1.00017,40.9089,39.909,41.9088,1.00006
0.58,0.213738,1.00017,40.9067,39.9068,41.9066,1.00007
0.59,0.214431,1.00017,40.9046,39.9047,41.9045,1.00007
0.6,0.215023,1.00017,40.9024,39.9026,41.9023,1.00006
0.61,0.215588,1.00016,40.9003,39.9004,41.9002,1.00004
0.62,0.216186,1.00016,40.8981,39.8983,41.898,1.00003
0.63,0.216849,1.00018,40.896,39.8961,41.8958,1.00004
0.64,0.217677,1.00019,40.8938,39.8939,41.8937,1.00006
0.65,0.218593,1.00019,40.8916,39.8918,41.8915,1.00006
0.66,0.219263,1.00019,40.8894,39.8896,41.8893,1.00007
0.67,0.219736,1.00019,40.8872,39.8874,41.8871,1.00006
0.68,0.22021,1.00018,40.885,39.8852,41.8849,1.00005
0.69,0.220689,1.00018,40.8828,39.883,41.8827,1.00003
0.7,0.221215,1.0002,40.8806,39.8808,41.8805,1.00005
0.71,0.221905,1.0002,40.8784,39.8786,41.8783,1.00006
0.72,0.222707,1.00019,40.8762,39.8763,41.8761,1.00007
0.73,0.223338,1.00019,40.874,39.8741,41.8739,1.00007
0.74,0.223715,1.00019,40.8717,39.8719,41.8716,1.00006
0.75,0.224079,1.00017,40.8695,39.8696,41.8694,1.00005
0.76,0.224467,1.00016,40.8672,39.8674,41.8671,1.00003
0.77,0.224983,1.00019,40.865,39.8651,41.8649,1.00005
0.78,0.225695,1.00019,40.8627,39.8629,41.8626,1.00006
0.79,0.226498,1.00018,40.8605,39.8606,41.8604,1.00007
0.8,0.227084,1.00018,40.8582,39.8583,41.8581,1.00007
0.81,0.227443,1.00017,40.8559,39.8561,41.8559,1.00006
0.82,0.227809,1.00016,40.8537,39.8538,41.8536,1.00005
0.83,0.228201,1.00015,40.8514,39.8515,41.8513,1.00003
0.84,0.228673,1.00018,40.8491,39.8492,41.849,1.00005
0.85,0.229323,1.00019,40.8468,39.8469,41.8467,1.00006
0.86,0.23008,1.00018,40.8445,39.8447,41.8444,1.00007
0.87,0.230538,1.00019,40.8422,39.8424,41.8421,1.00007
0.88,0.230853,1.00018,40.8399,39.84,41.8398,1.00006
0.89,0.231168,1.00017,40.8376,39.8377,41.8375,1.00004
0.9,0.231519,1.00018,40.8353,39.8354,41.8351,1.00004
0.91,0.23198,1.00021,40.833,39.8331,41.8328,1.00006
0.92,0.232624,1.00021,40.8306,39.8308,41.8305,1.00007
0.93,0.23335,1.00021,40.8283,39.8285,41.8282,1.00007
0.94,0.233641,1.00021,40.826,39.8261,41.8259,1.00007
0.95,0.233913,1.0002,40.8236,39.8238,41.8235,1.00006
0.96,0.234187,1.00018,40.8213,39.8214,41.8212,1.00004
0.97,0.234519,1.0002,40.819,39.8191,41.8188,1.00005
0.98,0.234998,1.00021,40.8166,39.8168,41.8165,1.00006
0.99,0.235634,1.0002,40.8143,39.8144,41.8141,1.00007
1,0.236215,1.0002,40.8119,39.812,41.8118,1.00007
1.01,0.236441,1.00019,40.8095,39.8097,41.8094,1.00007
1.02,0.236654,1.00018,40.8072,39.8073,41.8071,1.00005
1.03,0.236901,1.00017,40.8048,39.8049,41.8047,1.00004
1.04,0.237243,1.00019,40.8024,39.8026,41.8023,1.00005
1.05,0.237789,1.00021,40.8001,39.8002,41.7999,1.00007
1.06,0.238434,1.0002,40.7977,39.7978,41.7976,1.00007
1.07,0.238774,1.00019,40.7953,39.7954,41.7952,1.00007
1.08,0.238963,1.00019,40.7929,39.7931,41.7928,1.00006
1.09,0.239157,1.00017,40.7905,39.7907,41.7904,1.00005
1.1,0.239409,1.00018,40.7881,39.7883,41.788,1.00005
1.11,0.239776,1.0002,40.7857,39.7859,41.7856,1.00006
1.12,0.240349,1.00021,40.7833,39.7835,41.7832,1.00007
1.13,0.240907,1.0002,40.7809,39.7811,41.7808,1.00007
1.14,0.24106,1.0002,40.7785,39.7787,41.7784,1.00007
1.15,0.241218,1.00018,40.7761,39.7763,41.776,1.00005
1.16,0.241386,1.00017,40.7737,39.7738,41.7736,1.00004
1.17,0.241658,1.0002,40.7713,39.7714,41.7711,1.00006
1.18,0.242106,1.00022,40.7689,39.769,41.7687,1.00007
1.19,0.242701,1.00022,40.7664,39.7666,41.7663,1.00007
1.2,0.242943,1.00022,40.764,39.7642,41.7639,1.00007
1.21,0.24304,1.00021,40.7616,39.7618,41.7615,1.00006
1.22,0.243179,1.0002,40.7592,39.7593,41.759,1.00005
1.23,0.243362,1.00021,40.7567,39.7569,41.7566,1.00005
1.24,0.243661,1.00023,40.7543,39.7545,41.7541,1.00007
1.25,0.244149,1.00023,40.7519,39.752,41.7517,1.00008
1.26,0.244597,1.00023,40.7494,39.7496,41.7493,1.00008
1.27,0.244669,1.00022,40.747,39.7471,41.7468,1.00007
1.28,0.244757,1.0002,40.7445,39.7447,41.7444,1.00006
1.29,0.244867,1.0002,40.7421,39.7422,41.7419,1.00005
1.3,0.245142,1.00022,40.7396,39.7398,41.7395,1.00007
1.31,0.245631,1.00022,40.7372,39.7373,41.7371,1.00008
1.32,0.24621,1.00021,40.7347,39.7349,41.7346,1.00008
1.33,0.246368,1.0002,40.7322,39.7324,41.7322,1.00008
1.34,0.246494,1.00019,40.7298,39.7299,41.7297,1.00006
1.35,0.246624,1.00017,40.7273,39.7275,41.7272,1.00004
1.36,0.246847,1.0002,40.7249,39.725,41.7247,1.00006
1.37,0.247236,1.00022,40.7224,39.7225,41.7222,1.00007
1.38,0.247789,1.00022,40.7199,39.7201,41.7198,1.00008
1.39,0.248091,1.00022,40.7174,39.7176,41.7173,1.00008
1.4,0.248209,1.00021,40.7149,39.7151,41.7148,1.00007
1.41,0.248326,1.0002,40.7125,39.7126,41.7123,1.00005
1.42,0.248505,1.00022,40.71,39.7101,41.7098,1.00006
1.43,0.248813,1.00024,40.7075,39.7077,41.7073,1.00007
1.44,0.249332,1.00024,40.705,39.7052,41.7049,1.00008
1.45,0.249772,1.00024,40.7025,39.7027,41.7024,1.00008
1.46,0.249846,1.00023,40.7,39.7002,41.6999,1.00008
1.47,0.249954,1.00022,40.6975,39.6977,41.6974,1.00006
1.48,0.250085,1.00022,40.695,39.6952,41.6949,1.00006
1.49,0.250327,1.00024,40.6925,39.6927,41.6923,1.00007
1.5,0.250767,1.00024,40.69,39.6902,41.6899,1.00008
1.51,0.251315,1.00023,40.6875,39.6877,41.6874,1.00008
1.52,0.251381,1.00022,40.685,39.6852,41.6849,1.00008
1.53,0.251433,1.00021,40.6825,39.6826,41.6823,1.00006
1.54,0.251525,1.0002,40.68,39.6801,41.6798,1.00005
1.55,0.251717,1.00022,40.6774,39.6776,41.6773,1.00007
1.56,0.252131,1.00023,40.6749,39.6751,41.6748,1.00008
1.57,0.252654,1.00023,40.6724,39.6726,41.6723,1.00008
1.58,0.252787,1.00022,40.6699,39.67,41.6698,1.00008
1.59,0.252837,1.00021,40.6674,39.6675,41.6672,1.00007
1.6,0.252893,1.00019,40.6648,39.665,41.6647,1.00005
1.61,0.253049,1.00022,40.6623,39.6624,41.6621,1.00006
1.62,0.253374,1.00023,40.6598,39.6599,41.6596,1.00008
1.63,0.25389,1.00023,40.6572,39.6574,41.6571,1.00008
1.64,0.254085,1.00023,40.6547,39.6549,41.6546,1.00008
1.65,0.254116,1.00022,40.6521,39.6523,41.652,1.00007
1.66,0.254157,1.0002,40.6496,39.6498,41.6495,1.00005
1.67,0.254277,1.00022,40.6471,39.6472,41.6469,1.00006
1.68,0.254566,1.00024,40.6445,39.6447,41.6444,1.00007
1.69,0.255036,1.00024,40.642,39.6422,41.6418,1.00008
1.7,0.255292,1.00024,40.6394,39.6396,41.6393,1.00008
1.71,0.255292,1.00023,40.6369,39.6371,41.6367,1.00007
1.72,0.255333,1.00022,40.6343,39.6345,41.6342,1.00005
1.73,0.255375,1.00023,40.6318,39.6319,41.6316,1.00006
1.74,0.255572,1.00025,40.6292,39.6294,41.6291,1.00008
1.75,0.255972,1.00025,40.6267,39.6268,41.6265,1.00008
1.76,0.256268,1.00024,40.6241,39.6243,41.624,1.00008
1.77,0.256234,1.00023,40.6215,39.6217,41.6214,1.00007
1.78,0.25621,1.00021,40.619,39.6191,41.6188,1.00006
1.79,0.256269,1.00021,40.6164,39.6166,41.6163,1.00006
1.8,0.2565,1.00023,40.6138,39.614,41.6137,1.00007
1.81,0.256944,1.00023,40.6113,39.6115,41.6112,1.00008
1.82,0.257298,1.00022,40.6087,39.6089,41.6086,1.00008
1.83,0.257307,1.00021,40.6061,39.6063,41.606,1.00008
1.84,0.257332,1.00019,40.6036,39.6037,41.6034,1.00006
1.85,0.25741,1.0002,40.601,39.6011,41.6009,1.00006
1.86,0.257606,1.00023,40.5984,39.5986,41.5983,1.00007
1.87,0.258029,1.00023,40.5958,39.596,41.5957,1.00008
1.88,0.258406,1.00023,40.5933,39.5934,41.5931,1.00008
1.89,0.258426,1.00023,40.5907,39.5909,41.5905,1.00008
1.9,0.258446,1.00021,40.5881,39.5883,41.5879,1.00006
1.91,0.258499,1.00022,40.5855,39.5857,41.5853,1.00006
1.92,0.258694,1.00025,40.5829,39.5831,41.5828,1.00007
1.93,0.259102,1.00026,40.5803,39.5805,41.5802,1.00008
1.94,0.259514,1.00025,40.5777,39.5779,41.5776,1.00009
1.95,0.259502,1.00024,40.5751,39.5753,41.575,1.00008
1.96,0.259524,1.00023,40.5726,39.5727,41.5724,1.00006
1.97,0.259577,1.00023,40.57,39.5701,41.5698,1.00006
1.98,0.259749,1.00025,40.5674,39.5675,41.5672,1.00008
1.99,0.260141,1.00025,40.5648,39.5649,41.5646,1.00008
2,0.260562,1.00024,40.5622,39.5623,41.562,1.00009
2.01,0.260547,1.00023,40.5596,39.5597,41.5594,1.00008
2.02,0.260533,1.00022,40.557,39.5571,41.5568,1.00006
2.03,0.260578,1.00021,40.5543,39.5545,41.5542,1.00006
2.04,0.260746,1.00024,40.5517,39.5519,41.5516,1.00007
2.05,0.261152,1.00025,40.5491,39.5493,41.549,1.00008
2.06,0.261544,1.00024,40.5465,39.5467,41.5464,1.00009
2.07,0.261524,1.00023,40.5439,39.5441,41.5438,1.00008
2.08,0.261513,1.00021,40.5413,39.5414,41.5411,1.00006
2.09,0.261547,1.00021,40.5387,39.5388,41.5385,1.00006
2.1,0.261704,1.00024,40.5361,39.5362,41.5359,1.00007
2.11,0.262083,1.00024,40.5334,39.5336,41.5333,1.00008
2.12,0.26246,1.00024,40.5308,39.531,41.5307,1.00008
2.13,0.262418,1.00023,40.5282,39.5284,41.5281,1.00008
2.14,0.262383,1.00022,40.5256,39.5257,41.5254,1.00006
2.15,0.262401,1.00022,40.523,39.5231,41.5228,1.00006
2.16,0.26254,1.00025,40.5203,39.5205,41.5202,1.00007
2.17,0.262915,1.00026,40.5177,39.5179,41.5175,1.00008
2.18,0.263246,1.00025,40.5151,39.5153,41.5149,1.00009
2.19,0.263001,1.00025,40.5124,39.5126,41.5123,1.00008
2.2,0.263002,1.00024,40.5098,39.51,41.5096,1.00006
2.21,0.263027,1.00025,40.5072,39.5074,41.507,1.00006
2.22,0.263162,1.00027,40.5046,39.5047,41.5044,1.00008
2.23,0.26351,1.00027,40.5019,39.5021,41.5018,1.00009
2.24,0.263823,1.00026,40.4993,39.4995,41.4991,1.00009
2.25,0.263734,1.00026,40.4966,39.4969,41.4965,1.00008
2.26,0.263659,1.00024,40.494,39.4942,41.4939,1.00006
2.27,0.263653,1.00024,40.4914,39.4916,41.4912,1.00007
2.28,0.263835,1.00026,40.4887,39.4889,41.4886,1.00008
2.29,0.26424,1.00025,40.4861,39.4863,41.486,1.00009
2.3,0.264513,1.00024,40.4835,39.4836,41.4833,1.00009
2.31,0.26448,1.00022,40.4808,39.481,41.4807,1.00008
2.32,0.26446,1.0002,40.4782,39.4783,41.478,1.00006
2.33,0.264529,1.00021,40.4755,39.4757,41.4754,1.00006
2.34,0.264735,1.00024,40.4729,39.473,41.4727,1.00008
2.35,0.265174,1.00024,40.4702,39.4704,41.4701,1.00009
2.36,0.265399,1.00024,40.4676,39.4678,41.4674,1.00009
2.37,0.265393,1.00024,40.4649,39.4651,41.4648,1.00007
2.38,0.265389,1.00022,40.4623,39.4624,41.4621,1.00006
2.39,0.265466,1.00025,40.4596,39.4598,41.4594,1.00007
2.4,0.265713,1.00027,40.457,39.4571,41.4568,1.00009
2.41,0.266161,1.00027,40.4543,39.4545,41.4541,1.00009
2.42,0.266327,1.00027,40.4516,39.4518,41.4515,1.00009
2.43,0.266301,1.00026,40.449,39.4492,41.4488,1.00008
2.44,0.266293,1.00024,40.4463,39.4465,41.4461,1.00006
2.45,0.266369,1.00026,40.4437,39.4438,41.4435,1.00008
2.46,0.266626,1.00028,40.441,39.4412,41.4408,1.00009
2.47,0.267069,1.00027,40.4383,39.4385,41.4382,1.00009
2.48,0.267165,1.00026,40.4356,39.4358,41.4355,1.00009
2.49,0.26711,1.00024,40.433,39.4332,41.4328,1.00007
2.5,0.267081,1.00023,40.4303,39.4305,41.4301,1.00006
2.51,0.267163,1.00025,40.4276,39.4278,41.4275,1.00008
2.52,0.267468,1.00027,40.425,39.4252,41.4248,1.00009
2.53,0.267909,1.00026,40.4223,39.4225,41.4221,1.00009
2.54,0.267908,1.00025,40.4196,39.4198,41.4195,1.00009
2.55,0.267851,1.00023,40.4169,39.4171,41.4168,1.00007
2.56,0.267833,1.00022,40.4143,39.4144,41.4141,1.00006
2.57,0.267914,1.00025,40.4116,39.4117,41.4114,1.00008
2.58,0.268232,1.00026,40.4089,39.4091,41.4087,1.00009
2.59,0.268658,1.00026,40.4062,39.4064,41.4061,1.00009
2.6,0.268578,1.00025,40.4035,39.4037,41.4034,1.00008
2.61,0.268519,1.00023,40.4008,39.401,41.4007,1.00007
2.62,0.268503,1.00023,40.3982,39.3983,41.398,1.00006
2.63,0.268614,1.00026,40.3955,39.3957,41.3953,1.00008
2.64,0.26896,1.00027,40.3928,39.393,41.3926,1.00009
2.65,0.269276,1.00027,40.3901,39.3903,41.3899,1.00009
2.66,0.269171,1.00026,40.3874,39.3876,41.3873,1.00008
2.67,0.269116,1.00025,40.3847,39.3849,41.3845,1.00007
2.68,0.269094,1.00026,40.382,39.3822,41.3818,1.00007
2.69,0.269207,1.00028,40.3793,39.3795,41.3792,1.00009
2.7,0.269543,1.00028,40.3766,39.3768,41.3765,1.00009
2.71,0.269758,1.00027,40.3739,39.3742,41.3738,1.00009
2.72,0.269634,1.00026,40.3712,39.3715,41.3711,1.00008
2.73,0.269543,1.00024,40.3686,39.3687,41.3684,1.00006
2.74,0.269536,1.00025,40.3659,39.366,41.3657,1.00008
2.75,0.269788,1.00027,40.3632,39.3634,41.363,1.00009
2.76,0.270211,1.00026,40.3605,39.3607,41.3603,1.00009
2.77,0.270341,1.00025,40.3578,39.358,41.3576,1.00009
2.78,0.270274,1.00023,40.3551,39.3552,41.3549,1.00008
2.79,0.270251,1.00021,40.3524,39.3525,41.3522,1.00006
2.8,0.270305,1.00024,40.3497,39.3498,41.3495,1.00008
2.81,0.270576,1.00026,40.347,39.3471,41.3468,1.00009
2.82,0.271009,1.00026,40.3442,39.3444,41.3441,1.00009
2.83,0.27102,1.00025,40.3415,39.3417,41.3414,1.00009
2.84,0.270966,1.00024,40.3388,39.339,41.3387,1.00007
2.85,0.270943,1.00023,40.3361,39.3363,41.3359,1.00006
2.86,0.271029,1.00026,40.3334,39.3336,41.3332,1.00008
2.87,0.271353,1.00028,40.3307,39.3309,41.3305,1.00009
2.88,0.271758,1.00027,40.328,39.3282,41.3278,1.00009
2.89,0.271672,1.00027,40.3253,39.3255,41.3251,1.00009
2.9,0.271624,1.00025,40.3226,39.3227,41.3224,1.00007
2.91,0.27162,1.00026,40.3198,39.32,41.3196,1.00007
2.92,0.271746,1.00028,40.3171,39.3173,41.3169,1.00009
2.93,0.272102,1.00028,40.3144,39.3146,41.3142,1.00009
2.94,0.272383,1.00027,40.3117,39.3119,41.3115,1.00009
2.95,0.27229,1.00025,40.309,39.3091,41.3088,1.00008
2.96,0.272224,1.00024,40.3062,39.3064,41.3061,1.00006
2.97,0.272228,1.00025,40.3035,39.3037,41.3033,1.00007
2.98,0.272438,1.00027,40.3008,39.301,41.3006,1.00009
2.99,0.272832,1.00027,40.2981,39.2983,41.2979,1.00009
3,0.272955,1.00026,40.2953,39.2955,41.2952,1.00009
3.01,0.272864,1.00024,40.2926,39.2928,41.2925,1.00008
3.02,0.272809,1.00023,40.2899,39.29,41.2897,1.00006
3.03,0.272837,1.00025,40.2872,39.2873,41.287,1.00008
3.04,0.27309,1.00027,40.2844,39.2846,41.2842,1.00009
3.05,0.273507,1.00027,40.2817,39.2819,41.2815,1.00009
3.06,0.273466,1.00026,40.279,39.2792,41.2788,1.00009
3.07,0.273364,1.00024,40.2762,39.2764,41.2761,1.00007
3.08,0.273309,1.00024,40.2735,39.2737,41.2733,1.00006
3.09,0.273366,1.00027,40.2708,39.271,41.2706,1.00008
3.1,0.273669,1.00028,40.268,39.2682,41.2679,1.00009
3.11,0.273993,1.00028,40.2653,39.2655,41.2651,1.00009
3.12,0.273837,1.00027,40.2625,39.2628,41.2624,1.00008
3.13,0.27375,1.00026,40.2598,39.26,41.2596,1.00007
3.14,0.2737,1.00027,40.2571,39.2573,41.2569,1.00007
3.15,0.273779,1.00029,40.2543,39.2545,41.2541,1.00009
3.16,0.274088,1.00029,40.2516,39.2518,41.2514,1.0001
3.17,0.274255,1.00029,40.2489,39.2491,41.2487,1.0001
3.18,0.274109,1.00027,40.2461,39.2463,41.246,1.00008
3.19,0.273995,1.00025,40.2434,39.2436,41.2432,1.00007
3.2,0.273983,1.00027,40.2406,39.2408,41.2405,1.00008
3.21,0.274219,1.00028,40.2379,39.2381,41.2377,1.00009
3.22,0.274624,1.00027,40.2352,39.2354,41.235,1.0001
3.23,0.27467,1.00026,40.2324,39.2326,41.2323,1.00009
3.24,0.274583,1.00024,40.2297,39.2299,41.2295,1.00008
3.25,0.274549,1.00023,40.2269,39.2271,41.2268,1.00006
3.26,0.274605,1.00026,40.2242,39.2244,41.224,1.00008
3.27,0.274904,1.00027,40.2214,39.2216,41.2213,1.00009
3.28,0.275303,1.00027,40.2187,39.2189,41.2185,1.0001
3.29,0.275217,1.00027,40.2159,39.2161,41.2158,1.00009
3.3,0.275154,1.00025,40.2132,39.2134,41.213,1.00007
3.31,0.275148,1.00026,40.2104,39.2106,41.2102,1.00007
3.32,0.275275,1.00029,40.2077,39.2079,41.2075,1.00009
3.33,0.275644,1.0003,40.2049,39.2051,41.2047,1.0001
3.34,0.275879,1.00029,40.2022,39.2024,41.202,1.0001
3.35,0.275789,1.00028,40.1994,39.1996,41.1992,1.00009
3.36,0.275731,1.00027,40.1966,39.1968,41.1965,1.00007
3.37,0.275747,1.00028,40.1939,39.1941,41.1937,1.00008
3.38,0.275945,1.0003,40.1911,39.1913,41.1909,1.0001
3.39,0.276347,1.00029,40.1884,39.1886,41.1882,1.0001
3.4,0.276403,1.00028,40.1856,39.1858,41.1854,1.00009
3.41,0.276297,1.00027,40.1828,39.183,41.1827,1.00008
3.42,0.276231,1.00025,40.1801,39.1803,41.1799,1.00007
3.43,0.276285,1.00028,40.1773,39.1775,41.1771,1.00009
3.44,0.276581,1.00029,40.1746,39.1748,41.1744,1.0001
3.45,0.276966,1.00028,40.1718,39.172,41.1716,1.0001
3.46,0.276853,1.00027,40.169,39.1692,41.1689,1.00009
3.47,0.276755,1.00025,40.1663,39.1664,41.1661,1.00007
3.48,0.276724,1.00026,40.1635,39.1637,41.1633,1.00008
3.49,0.27682,1.00028,40.1607,39.1609,41.1605,1.00009
3.5,0.277172,1.00029,40.158,39.1581,41.1578,1.0001
3.51,0.277365,1.00028,40.1552,39.1554,41.155,1.0001
3.52,0.27725,1.00027,40.1524,39.1526,41.1522,1.00008
3.53,0.277153,1.00025,40.1496,39.1498,41.1495,1.00007
3.54,0.277148,1.00027,40.1469,39.1471,41.1467,1.00008
3.55,0.277348,1.00029,40.1441,39.1443,41.1439,1.00009
3.56,0.277735,1.00029,40.1413,39.1415,41.1411,1.0001
3.57,0.277708,1.00029,40.1385,39.1388,41.1384,1.00009
3.58,0.2776,1.00028,40.1358,39.136,41.1356,1.00008
3.59,0.277498,1.00027,40.133,39.1332,41.1328,1.00007
3.6,0.277491,1.00029,40.1302,39.1304,41.13,1.00009
3.61,0.277727,1.0003,40.1274,39.1277,41.1273,1.0001
3.62,0.278026,1.00029,40.1247,39.1249,41.1245,1.0001
3.63,0.277868,1.00028,40.1219,39.1221,41.1217,1.00009
3.64,0.277711,1.00026,40.1191,39.1193,41.1189,1.00007
3.65,0.277652,1.00026,40.1163,39.1165,41.1162,1.00008
3.66,0.27779,1.00028,40.1136,39.1138,41.1134,1.00009
3.67,0.278161,1.00028,40.1108,39.111,41.1106,1.0001
3.68,0.27829,1.00027,40.108,39.1082,41.1079,1.0001
3.69,0.278181,1.00025,40.1052,39.1054,41.1051,1.00008
3.7,0.278091,1.00023,40.1024,39.1026,41.1023,1.00006
3.71,0.278108,1.00026,40.0997,39.0998,41.0995,1.00008
3.72,0.278336,1.00028,40.0969,39.0971,41.0967,1.00009
3.73,0.278742,1.00028,40.0941,39.0943,41.0939,1.0001
