time,velocity,ratio,centerX,Xmax,Xmin,Ymax
0,0,1,8.5,7.5,9.5,1
0.01,0.0183238,0.999989,8.49992,7.4999,9.49993,1.00001
0.02,0.0342056,0.999999,8.49967,7.49965,9.49968,1.00001
0.03,0.0481341,1.00001,8.49927,7.49926,9.49927,1.00002
0.04,0.06046,1.00002,8.49875,7.49873,9.49873,1.00002
0.05,0.0714831,1.00003,8.4981,7.49809,9.49807,1.00002
0.06,0.0813632,1.00004,8.49735,7.49733,9.4973,1.00002
0.07,0.0902504,1.00005,8.4965,7.49648,9.49644,1.00002
0.08,0.0982443,1.00005,8.49557,7.49555,9.4955,1.00002
0.09,0.105539,1.00005,8.49456,7.49455,9.49448,1.00002
0.1,0.112189,1.00005,8.49349,7.49347,9.4934,1.00002
0.11,0.118275,1.00005,8.49234,7.49233,9.49226,1.00001
0.12,0.123874,1.00005,8.49114,7.49114,9.49106,1.00001
0.13,0.129047,1.00006,8.48989,7.48989,9.48982,1.00002
0.14,0.133835,1.00007,8.48858,7.4886,9.48853,1.00004
0.15,0.138268,1.00007,8.48723,7.48726,9.48721,1.00005
0.16,0.142375,1.00007,8.48583,7.48588,9.48585,1.00006
0.17,0.146153,1.00006,8.4844,7.48446,9.48447,1.00006
0.18,0.149709,1.00004,8.48292,7.483,9.48306,1.00007
0.19,0.153048,1.00001,8.48142,7.4815,9.48162,1.00007
0.2,0.156191,0.999976,8.47988,7.47997,9.48014,1.00006
0.21,0.159138,0.999944,8.47831,7.4784,9.47862,1.00006
0.22,0.16192,0.999917,8.47671,7.47681,9.47708,1.00005
0.23,0.164551,0.999918,8.47508,7.4752,9.4755,1.00007
0.24,0.167052,0.999925,8.47343,7.47357,9.47388,1.00008
0.25,0.169418,0.999934,8.47175,7.47191,9.47225,1.0001
0.26,0.171679,0.999943,8.47005,7.47024,9.47058,1.00011
0.27,0.173799,0.999947,8.46832,7.46855,9.46889,1.00012
0.28,0.175861,0.999942,8.46658,7.46684,9.4672,1.00012
0.29,0.177823,0.999935,8.46482,7.46509,9.46547,1.00013
0.3,0.179721,0.999931,8.46303,7.46332,9.46372,1.00013
0.31,0.181502,0.999928,8.46123,7.46154,9.46194,1.00013
0.32,0.183209,0.999948,8.45941,7.45975,9.46014,1.00015
0.33,0.184847,0.999976,8.45757,7.45794,9.45832,1.00017
0.34,0.186431,1,8.45572,7.45612,9.45647,1.00018
0.35,0.187948,1.00003,8.45385,7.45428,9.4546,1.00019
0.36,0.189406,1.00006,8.45197,7.45244,9.45272,1.0002
0.37,0.190827,1.00008,8.45007,7.45057,9.45084,1.00021
0.38,0.192196,1.00009,8.44816,7.44867,9.44893,1.00022
0.39,0.193493,1.00011,8.44623,7.44676,9.44699,1.00022
0.4,0.194733,1.00012,8.44429,7.44483,9.44504,1.00023
0.41,0.195934,1.00016,8.44234,7.44289,9.44307,1.00025
0.42,0.197119,1.0002,8.44038,7.44093,9.44108,1.00027
0.43,0.198249,1.00024,8.43841,7.43897,9.43908,1.00029
0.44,0.199357,1.00027,8.43642,7.437,9.43707,1.00031
0.45,0.200408,1.00031,8.43442,7.43503,9.43506,1.00032
0.46,0.201463,1.00035,8.43242,7.43304,9.43301,1.00033
0.47,0.202466,1.0004,8.4304,7.43105,9.43093,1.00034
0.48,0.203441,1.00045,8.42837,7.42905,9.42885,1.00034
0.49,0.204401,1.00052,8.42634,7.42705,9.42675,1.00037
0.5,0.205367,1.0006,8.42429,7.42505,9.42465,1.0004
0.51,0.206288,1.00067,8.42223,7.42304,9.42254,1.00042
0.52,0.207188,1.00073,8.42017,7.42103,9.42044,1.00044
0.53,0.208062,1.00078,8.41809,7.41899,9.41834,1.00046
0.54,0.208908,1.00083,8.41601,7.41694,9.41622,1.00047
0.55,0.209736,1.00088,8.41392,7.41489,9.41408,1.00048
0.56,0.21053,1.00095,8.41182,7.41283,9.41193,1.0005
0.57,0.211334,1.00103,8.40971,7.41078,9.40977,1.00053
0.58,0.212107,1.00112,8.4076,7.40872,9.4076,1.00056
0.59,0.212884,1.00119,8.40547,7.40666,9.40543,1.00058
0.6,0.213623,1.00126,8.40334,7.40459,9.40326,1.0006
0.61,0.214337,1.00133,8.40121,7.4025,9.40108,1.00061
0.62,0.215056,1.00139,8.39906,7.4004,9.39888,1.00062
0.63,0.215731,1.00146,8.39691,7.39831,9.39667,1.00064
0.64,0.216409,1.00155,8.39475,7.39621,9.39445,1.00067
0.65,0.217057,1.00165,8.39258,7.39411,9.39222,1.0007
0.66,0.217706,1.00174,8.39041,7.39201,9.38999,1.00073
0.67,0.218328,1.00182,8.38823,7.38991,9.38777,1.00075
0.68,0.218937,1.00189,8.38605,7.38778,9.38553,1.00076
0.69,0.219501,1.00195,8.38386,7.38563,9.38328,1.00078
0.7,0.220035,1.00201,8.38166,7.38347,9.38102,1.00078
0.71,0.220574,1.00209,8.37946,7.3813,9.37875,1.00082
0.72,0.221106,1.00217,8.37726,7.37911,9.37647,1.00085
0.73,0.221634,1.00223,8.37504,7.37691,9.3742,1.00088
0.74,0.222154,1.00229,8.37283,7.37471,9.37194,1.0009
0.75,0.222666,1.00235,8.3706,7.37251,9.36964,1.00092
0.76,0.22317,1.00243,8.36838,7.37032,9.36732,1.00093
0.77,0.223665,1.0025,8.36614,7.36812,9.365,1.00094
0.78,0.224201,1.0026,8.36391,7.36593,9.36268,1.00097
0.79,0.224738,1.00269,8.36166,7.36374,9.36037,1.00101
0.8,0.225272,1.00277,8.35941,7.36154,9.35808,1.00103
0.81,0.225793,1.00284,8.35716,7.35934,9.3558,1.00106
0.82,0.226304,1.0029,8.3549,7.35714,9.3535,1.00108
0.83,0.226791,1.00295,8.35264,7.35491,9.3512,1.00109
0.84,0.227271,1.003,8.35037,7.35268,9.34888,1.0011
0.85,0.227752,1.00308,8.34809,7.35044,9.34656,1.00113
0.86,0.22824,1.00317,8.34582,7.34821,9.34423,1.00117
0.87,0.228653,1.00324,8.34353,7.34598,9.34192,1.0012
0.88,0.229107,1.00331,8.34125,7.34376,9.33959,1.00122
0.89,0.22957,1.00338,8.33895,7.34152,9.33725,1.00124
0.9,0.230009,1.00344,8.33666,7.33926,9.33491,1.00125
0.91,0.230418,1.00349,8.33436,7.337,9.33255,1.00126
0.92,0.230849,1.00358,8.33205,7.33474,9.33018,1.0013
0.93,0.23127,1.00367,8.32974,7.33248,9.32782,1.00133
0.94,0.231695,1.00375,8.32743,7.33023,9.32546,1.00136
0.95,0.232101,1.00383,8.32511,7.32797,9.32309,1.00138
0.96,0.232508,1.0039,8.32279,7.3257,9.32071,1.0014
0.97,0.232865,1.00396,8.32046,7.32341,9.31832,1.00141
0.98,0.23323,1.00402,8.31813,7.32111,9.31591,1.00142
0.99,0.233593,1.00411,8.3158,7.3188,9.31351,1.00145
1,0.233957,1.00419,8.31347,7.3165,9.31111,1.00149
1.01,0.234311,1.00426,8.31113,7.31419,9.30871,1.00151
1.02,0.234672,1.00434,8.30878,7.31188,9.3063,1.00154
1.03,0.235012,1.00442,8.30643,7.30957,9.30386,1.00155
1.04,0.235364,1.0045,8.30408,7.30726,9.30141,1.00156
1.05,0.235679,1.00459,8.30173,7.30495,9.29897,1.00158
1.06,0.236028,1.00469,8.29937,7.30265,9.29654,1.00162
1.07,0.236386,1.00479,8.29701,7.30035,9.29412,1.00165
1.08,0.236738,1.00488,8.29465,7.29806,9.29168,1.00168
1.09,0.237089,1.00498,8.29228,7.29577,9.28925,1.0017
1.1,0.237425,1.00507,8.28991,7.29346,9.2868,1.00172
1.11,0.237749,1.00515,8.28753,7.29114,9.28435,1.00173
1.12,0.23807,1.00525,8.28516,7.28883,9.28189,1.00176
1.13,0.238411,1.00536,8.28277,7.28653,9.27945,1.0018
1.14,0.238678,1.00547,8.28039,7.28423,9.277,1.00183
1.15,0.238975,1.00558,8.278,7.28193,9.27454,1.00186
1.16,0.239288,1.00569,8.27561,7.27964,9.27207,1.00189
1.17,0.239598,1.00579,8.27322,7.27733,9.2696,1.0019
1.18,0.23986,1.00589,8.27082,7.27502,9.26712,1.00191
1.19,0.240168,1.00601,8.26842,7.27271,9.26465,1.00195
1.2,0.240454,1.00613,8.26602,7.27041,9.26218,1.00199
1.21,0.24073,1.00625,8.26362,7.26812,9.25971,1.00202
1.22,0.240961,1.00638,8.26121,7.26583,9.25722,1.00205
1.23,0.241157,1.0065,8.2588,7.26354,9.25473,1.00207
1.24,0.241392,1.00661,8.25639,7.26122,9.25223,1.00209
1.25,0.24162,1.00671,8.25398,7.25889,9.24974,1.0021
1.26,0.241852,1.00682,8.25156,7.25655,9.24726,1.00215
1.27,0.242093,1.00693,8.24914,7.25419,9.24477,1.00218
1.28,0.242278,1.00703,8.24672,7.25183,9.24226,1.00221
1.29,0.24249,1.00712,8.2443,7.24945,9.23975,1.00224
1.3,0.24273,1.00721,8.24187,7.24708,9.23725,1.00226
1.31,0.242965,1.00728,8.23944,7.24472,9.23477,1.00227
1.32,0.24317,1.00736,8.23701,7.24236,9.23232,1.00231
1.33,0.243485,1.00745,8.23458,7.24,9.22988,1.00235
1.34,0.243777,1.00753,8.23215,7.23764,9.22742,1.00238
1.35,0.244061,1.00761,8.22971,7.23528,9.22495,1.00241
1.36,0.244335,1.00769,8.22727,7.23291,9.22248,1.00243
1.37,0.244587,1.00775,8.22482,7.23053,9.22,1.00245
1.38,0.244856,1.00781,8.22238,7.22814,9.21754,1.00247
1.39,0.245138,1.00789,8.21993,7.22575,9.21506,1.00251
1.4,0.245357,1.00798,8.21748,7.22336,9.21258,1.00255
1.41,0.245593,1.00807,8.21502,7.22098,9.21009,1.00258
1.42,0.245831,1.00816,8.21257,7.2186,9.20758,1.0026
1.43,0.246088,1.00824,8.21011,7.21621,9.20507,1.00262
1.44,0.246337,1.0083,8.20765,7.2138,9.20256,1.00264
1.45,0.246608,1.00839,8.20519,7.2114,9.20005,1.00267
1.46,0.246854,1.00849,8.20272,7.20899,9.19753,1.00271
1.47,0.247073,1.00859,8.20025,7.20659,9.195,1.00275
1.48,0.247274,1.00869,8.19778,7.20419,9.19245,1.00277
1.49,0.247514,1.00879,8.19531,7.20179,9.1899,1.00279
1.5,0.247741,1.00887,8.19283,7.19937,9.18735,1.00281
1.51,0.247972,1.00895,8.19036,7.19693,9.18481,1.00283
1.52,0.248193,1.00906,8.18788,7.19449,9.18223,1.00288
1.53,0.248425,1.00917,8.18539,7.19205,9.17964,1.00291
1.54,0.248647,1.00927,8.18291,7.1896,9.17705,1.00294
1.55,0.248868,1.00937,8.18042,7.18716,9.17446,1.00297
1.56,0.249088,1.00946,8.17793,7.18472,9.17188,1.00298
1.57,0.249274,1.00954,8.17544,7.18227,9.16932,1.003
1.58,0.249466,1.00965,8.17295,7.17983,9.16675,1.00305
1.59,0.249682,1.00976,8.17046,7.17739,9.16417,1.00309
1.6,0.249898,1.00988,8.16796,7.17496,9.16158,1.00312
1.61,0.250114,1.00999,8.16546,7.17253,9.15898,1.00315
1.62,0.250289,1.0101,8.16296,7.17011,9.15639,1.00317
1.63,0.250464,1.01018,8.16046,7.16766,9.15381,1.00318
1.64,0.250648,1.01029,8.15795,7.16521,9.15122,1.00323
1.65,0.250858,1.01042,8.15544,7.16277,9.14862,1.00327
1.66,0.25105,1.01054,8.15294,7.16033,9.14601,1.0033
1.67,0.251256,1.01066,8.15043,7.1579,9.1434,1.00334
1.68,0.251451,1.01078,8.14791,7.15547,9.14079,1.00336
1.69,0.251642,1.01087,8.1454,7.15303,9.13819,1.00338
1.7,0.251837,1.01099,8.14288,7.15058,9.13559,1.00341
1.71,0.252037,1.01112,8.14036,7.14813,9.13297,1.00345
1.72,0.252131,1.01125,8.13784,7.14569,9.13035,1.00349
1.73,0.252261,1.01137,8.13532,7.14325,9.12773,1.00353
1.74,0.252396,1.01149,8.1328,7.14081,9.12511,1.00355
1.75,0.252547,1.0116,8.13028,7.13837,9.1225,1.00357
1.76,0.252671,1.0117,8.12775,7.13591,9.11987,1.00359
1.77,0.252821,1.01184,8.12522,7.13342,9.11722,1.00364
1.78,0.25297,1.01196,8.1227,7.13093,9.11456,1.00368
1.79,0.25311,1.01207,8.12017,7.12844,9.11192,1.00371
1.8,0.253247,1.01216,8.11764,7.12593,9.1093,1.00374
1.81,0.253391,1.01222,8.1151,7.12341,9.1067,1.00376
1.82,0.253531,1.01229,8.11257,7.12092,9.1041,1.00378
1.83,0.253673,1.0124,8.11003,7.11843,9.10149,1.00382
1.84,0.253878,1.01251,8.1075,7.11594,9.09887,1.00387
1.85,0.254097,1.01262,8.10496,7.11346,9.09625,1.0039
1.86,0.254283,1.01272,8.10242,7.11099,9.09363,1.00393
1.87,0.254472,1.01281,8.09988,7.10851,9.09102,1.00395
1.88,0.254616,1.01289,8.09733,7.10602,9.0884,1.00397
1.89,0.254778,1.013,8.09478,7.10352,9.08577,1.00401
1.9,0.254931,1.01312,8.09224,7.10102,9.08314,1.00406
1.91,0.255094,1.01323,8.08969,7.09853,9.0805,1.00409
1.92,0.255232,1.01334,8.08714,7.09604,9.07786,1.00412
1.93,0.255146,1.01343,8.08458,7.09356,9.07523,1.00414
1.94,0.255377,1.01353,8.08203,7.09107,9.07259,1.00416
1.95,0.255559,1.01364,8.07948,7.08856,9.06994,1.0042
1.96,0.255733,1.01376,8.07692,7.08606,9.06728,1.00424
1.97,0.255913,1.01388,8.07437,7.08355,9.06462,1.00428
1.98,0.256086,1.01399,8.07181,7.08106,9.06196,1.00431
1.99,0.256261,1.0141,8.06925,7.07856,9.05931,1.00433
2,0.256422,1.0142,8.06668,7.07607,9.05664,1.00435
2.01,0.256599,1.01431,8.06412,7.07354,9.05396,1.00438
2.02,0.25676,1.01444,8.06155,7.07101,9.05127,1.00442
2.03,0.256917,1.01456,8.05899,7.06848,9.04857,1.00446
2.04,0.257069,1.01467,8.05642,7.06595,9.0459,1.00449
2.05,0.25722,1.01476,8.05385,7.06342,9.04324,1.00452
2.06,0.257348,1.01485,8.05128,7.06089,9.04056,1.00454
2.07,0.257484,1.01496,8.0487,7.05836,9.03788,1.00457
2.08,0.257603,1.01509,8.04613,7.05584,9.0352,1.00461
2.09,0.25773,1.01522,8.04355,7.05333,9.03251,1.00465
2.1,0.257898,1.01534,8.04098,7.05082,9.02984,1.00469
2.11,0.258006,1.01546,8.0384,7.04832,9.02716,1.00472
2.12,0.258101,1.01558,8.03582,7.04582,9.02448,1.00474
2.13,0.258209,1.01569,8.03324,7.04331,9.02179,1.00477
2.14,0.258324,1.01584,8.03065,7.04079,9.01909,1.00481
2.15,0.258456,1.01598,8.02807,7.03829,9.0164,1.00486
2.16,0.25855,1.01611,8.02549,7.03579,9.01372,1.00489
2.17,0.258678,1.01623,8.0229,7.0333,9.01103,1.00492
2.18,0.258812,1.01636,8.02032,7.03082,9.00834,1.00494
2.19,0.258888,1.0165,8.01773,7.02833,9.00564,1.00497
2.2,0.25895,1.01665,8.01514,7.02583,9.00294,1.00502
2.21,0.25903,1.0168,8.01255,7.02334,9.00024,1.00506
2.22,0.259137,1.01695,8.00996,7.02086,8.99755,1.0051
2.23,0.259178,1.0171,8.00737,7.01839,8.99484,1.00512
2.24,0.259184,1.01726,8.00478,7.01593,8.99212,1.00515
2.25,0.259208,1.0174,8.00219,7.01346,8.98941,1.00517
2.26,0.25923,1.01756,7.9996,7.01098,8.98673,1.00522
2.27,0.259264,1.01768,7.997,7.00848,8.98408,1.00526
2.28,0.25929,1.01778,7.99441,7.00597,8.98145,1.0053
2.29,0.259347,1.01787,7.99182,7.00346,8.97882,1.00533
2.3,0.259402,1.01795,7.98923,7.00093,8.97618,1.00535
2.31,0.259423,1.01802,7.98663,6.99838,8.97354,1.00537
2.32,0.259558,1.01814,7.98404,6.99586,8.97089,1.00543
2.33,0.259713,1.01825,7.98144,6.99335,8.96824,1.00547
2.34,0.259891,1.01836,7.97885,6.99084,8.9656,1.00551
2.35,0.260074,1.01846,7.97625,6.98832,8.96295,1.00554
2.36,0.260201,1.01856,7.97365,6.98581,8.96029,1.00556
2.37,0.260327,1.01867,7.97105,6.9833,8.95762,1.00558
2.38,0.260491,1.0188,7.96844,6.98077,8.95493,1.00563
2.39,0.260634,1.01891,7.96584,6.97823,8.95226,1.00568
2.4,0.260754,1.01902,7.96323,6.97569,8.94958,1.00572
2.41,0.260889,1.01913,7.96062,6.97316,8.94689,1.00575
2.42,0.261011,1.01925,7.95802,6.97063,8.94419,1.00577
2.43,0.261084,1.01936,7.95541,6.9681,8.94149,1.00579
2.44,0.261232,1.0195,7.9528,6.96557,8.93877,1.00584
2.45,0.261363,1.01963,7.95018,6.96301,8.93606,1.00589
2.46,0.2615,1.01975,7.94757,6.96047,8.93336,1.00593
2.47,0.261641,1.01988,7.94495,6.95792,8.93062,1.00596
2.48,0.261769,1.02001,7.94234,6.95538,8.92787,1.00598
2.49,0.261902,1.02014,7.93972,6.95284,8.92512,1.006
2.5,0.262028,1.02029,7.9371,6.95029,8.92238,1.00605
2.51,0.262153,1.02041,7.93448,6.94771,8.91966,1.0061
2.52,0.262281,1.02053,7.93186,6.94514,8.91693,1.00613
2.53,0.262399,1.02064,7.92924,6.94255,8.91419,1.00616
2.54,0.262505,1.02075,7.92662,6.93997,8.91145,1.00619
2.55,0.262608,1.02086,7.92399,6.93739,8.9087,1.00621
2.56,0.262701,1.021,7.92136,6.93482,8.90595,1.00626
2.57,0.262765,1.02113,7.91874,6.93225,8.90322,1.00631
2.58,0.262854,1.02126,7.91611,6.92967,8.90047,1.00635
2.59,0.262969,1.02139,7.91348,6.9271,8.89772,1.00638
2.6,0.263057,1.02151,7.91085,6.92454,8.89496,1.00641
2.61,0.263129,1.02164,7.90822,6.92199,8.8922,1.00643
2.62,0.263262,1.02179,7.90559,6.91943,8.88946,1.00648
2.63,0.263377,1.02193,7.90296,6.91685,8.88671,1.00653
2.64,0.263483,1.02206,7.90033,6.91428,8.88395,1.00657
2.65,0.263583,1.0222,7.89769,6.91171,8.88119,1.0066
2.66,0.263635,1.02233,7.89506,6.90915,8.87842,1.00663
2.67,0.263709,1.02247,7.89242,6.9066,8.87566,1.00665
2.68,0.263795,1.02262,7.88978,6.90404,8.87291,1.0067
2.69,0.263861,1.02277,7.88715,6.90147,8.87014,1.00675
2.7,0.263954,1.02293,7.88451,6.8989,8.86734,1.00678
2.71,0.264028,1.02308,7.88187,6.89634,8.86455,1.00681
2.72,0.264112,1.02322,7.87923,6.89378,8.86177,1.00684
2.73,0.264169,1.02335,7.87659,6.89123,8.85902,1.00686
2.74,0.264217,1.02349,7.87395,6.88868,8.85628,1.00691
2.75,0.264271,1.02362,7.87131,6.8861,8.85354,1.00696
2.76,0.264287,1.02374,7.86866,6.8835,8.85079,1.00699
2.77,0.264368,1.02385,7.86602,6.8809,8.84804,1.00702
2.78,0.264419,1.02395,7.86338,6.87829,8.84528,1.00705
2.79,0.264463,1.02403,7.86073,6.87567,8.84254,1.00707
2.8,0.26456,1.02415,7.85809,6.87306,8.83979,1.00712
2.81,0.264643,1.02428,7.85545,6.87046,8.83704,1.00716
2.82,0.264779,1.0244,7.8528,6.86786,8.83428,1.0072
2.83,0.264918,1.02453,7.85015,6.86528,8.83151,1.00723
2.84,0.265006,1.02465,7.8475,6.86269,8.82874,1.00726
2.85,0.265087,1.02477,7.84485,6.86011,8.82599,1.00728
2.86,0.265226,1.02491,7.8422,6.85753,8.82323,1.00733
2.87,0.265307,1.02505,7.83955,6.85493,8.82046,1.00738
2.88,0.26535,1.02518,7.8369,6.85233,8.81768,1.00742
2.89,0.265392,1.02531,7.83424,6.84973,8.81489,1.00745
2.9,0.265447,1.02543,7.83159,6.84714,8.81211,1.00747
2.91,0.265514,1.02556,7.82894,6.84455,8.80933,1.0075
2.92,0.265609,1.02573,7.82628,6.84197,8.80652,1.00755
2.93,0.26571,1.02588,7.82363,6.83936,8.80371,1.00759
2.94,0.265809,1.02603,7.82097,6.83676,8.8009,1.00763
2.95,0.265909,1.02616,7.81831,6.83416,8.79809,1.00766
2.96,0.266005,1.02629,7.81565,6.83156,8.79531,1.00768
2.97,0.266105,1.02641,7.81299,6.82897,8.79252,1.00771
2.98,0.266198,1.02657,7.81033,6.82637,8.78973,1.00776
2.99,0.266288,1.02671,7.80767,6.82376,8.78694,1.00781
3,0.26637,1.02684,7.80501,6.82113,8.78413,1.00784
3.01,0.266443,1.02696,7.80235,6.81851,8.78134,1.00787
3.02,0.266472,1.02707,7.79968,6.81588,8.77855,1.0079
3.03,0.26651,1.02718,7.79702,6.81326,8.77576,1.00793
3.04,0.266548,1.02733,7.79435,6.81064,8.77296,1.00798
3.05,0.266583,1.02748,7.79169,6.80803,8.77016,1.00802
3.06,0.26663,1.02761,7.78902,6.80541,8.76736,1.00806
3.07,0.266695,1.02774,7.78636,6.8028,8.76456,1.00809
3.08,0.266754,1.02787,7.78369,6.80021,8.76178,1.00812
3.09,0.266839,1.02801,7.78102,6.79761,8.75898,1.00815
3.1,0.266939,1.02817,7.77836,6.79502,8.75618,1.0082
3.11,0.266977,1.02832,7.77569,6.79242,8.75337,1.00825
3.12,0.267001,1.02847,7.77302,6.78981,8.75056,1.00828
3.13,0.267039,1.0286,7.77035,6.78722,8.74778,1.00831
3.14,0.267047,1.02875,7.76768,6.78464,8.74496,1.00834
3.15,0.267088,1.02891,7.76501,6.78206,8.74213,1.00837
3.16,0.267121,1.02909,7.76234,6.77949,8.73932,1.00842
3.17,0.267141,1.02924,7.75967,6.7769,8.73653,1.00847
3.18,0.267193,1.02937,7.757,6.77431,8.73377,1.0085
3.19,0.267228,1.02948,7.75433,6.77174,8.73103,1.00853
3.2,0.267276,1.0296,7.75165,6.76917,8.72828,1.00855
3.21,0.267319,1.02974,7.74898,6.76661,8.72553,1.00859
3.22,0.267352,1.0299,7.74631,6.76406,8.72278,1.00864
3.23,0.267365,1.03004,7.74364,6.76148,8.72002,1.00868
3.24,0.267401,1.03016,7.74096,6.75889,8.71727,1.00872
3.25,0.267441,1.03027,7.73829,6.75629,8.71451,1.00875
3.26,0.26749,1.03037,7.73562,6.75368,8.71175,1.00877
3.27,0.267539,1.03049,7.73294,6.75106,8.70898,1.00881
3.28,0.267625,1.03062,7.73027,6.74842,8.7062,1.00886
3.29,0.267681,1.03075,7.72759,6.74581,8.70341,1.0089
3.3,0.267793,1.03087,7.72491,6.7432,8.70064,1.00894
3.31,0.267898,1.031,7.72224,6.74059,8.69786,1.00897
3.32,0.267982,1.03112,7.71956,6.73799,8.69507,1.00899
3.33,0.268078,1.03127,7.71688,6.73539,8.69227,1.00903
3.34,0.268131,1.03143,7.7142,6.73279,8.68946,1.00908
3.35,0.268145,1.03157,7.71152,6.73017,8.68666,1.00912
3.36,0.26819,1.03169,7.70884,6.72754,8.68386,1.00916
3.37,0.268226,1.03182,7.70615,6.72492,8.68105,1.00918
3.38,0.268277,1.03195,7.70347,6.72231,8.67822,1.0092
3.39,0.268333,1.03213,7.70079,6.7197,8.67538,1.00925
3.4,0.268433,1.03229,7.69811,6.71709,8.67254,1.0093
3.41,0.268541,1.03243,7.69542,6.71446,8.66973,1.00934
3.42,0.26864,1.03256,7.69274,6.71183,8.66691,1.00937
3.43,0.268738,1.03269,7.69005,6.7092,8.66409,1.0094
3.44,0.268828,1.03282,7.68737,6.70658,8.66126,1.00942
3.45,0.268901,1.03299,7.68468,6.70396,8.65843,1.00947
3.46,0.268986,1.03315,7.68199,6.70134,8.6556,1.00952
3.47,0.269032,1.03328,7.6793,6.6987,8.65278,1.00956
3.48,0.269077,1.03341,7.67661,6.69605,8.64995,1.00959
3.49,0.269129,1.03353,7.67392,6.69339,8.64711,1.00961
3.5,0.269175,1.03365,7.67123,6.69073,8.64427,1.00964
3.51,0.269217,1.0338,7.66854,6.68808,8.64143,1.00969
3.52,0.269265,1.03394,7.66585,6.68543,8.6386,1.00974
3.53,0.269304,1.03408,7.66315,6.68278,8.63577,1.00978
3.54,0.269351,1.03421,7.66046,6.68013,8.63294,1.00981
3.55,0.269418,1.03435,7.65777,6.67749,8.63009,1.00983
3.56,0.269458,1.03449,7.65508,6.67486,8.62725,1.00986
3.57,0.269509,1.03465,7.65238,6.67223,8.62441,1.00992
3.58,0.269496,1.03481,7.64969,6.6696,8.62158,1.00996
3.59,0.269496,1.03496,7.64699,6.66695,8.61871,1.01
3.6,0.269519,1.03511,7.6443,6.66431,8.61584,1.01003
3.61,0.269592,1.03526,7.6416,6.66167,8.61298,1.01005
3.62,0.269641,1.0354,7.63891,6.65905,8.61014,1.01008
3.63,0.269704,1.03555,7.63621,6.65642,8.60733,1.01013
3.64,0.269755,1.0357,7.63352,6.6538,8.60452,1.01018
3.65,0.269704,1.03583,7.63082,6.65116,8.6017,1.01021
3.66,0.269803,1.03596,7.62812,6.64852,8.59888,1.01024
3.67,0.269878,1.03608,7.62542,6.64589,8.59605,1.01026
3.68,0.269949,1.03623,7.62273,6.64327,8.59323,1.0103
3.69,0.269994,1.03638,7.62003,6.64065,8.59042,1.01035
3.7,0.270066,1.03653,7.61733,6.63803,8.58759,1.01039
3.71,0.270115,1.03666,7.61463,6.63538,8.58477,1.01042
3.72,0.270174,1.03678,7.61193,6.63271,8.58193,1.01045
3.73,0.270212,1.03689,7.60922,6.63004,8.57909,1.01047
3.74,0.270302,1.03701,7.60652,6.62736,8.57627,1.01051
