time,velocity,ratio,centerX,Xmax,Xmin,Ymax
0,0,1,21,20,22,1
0.01,0.0184609,1,20.9999,19.9999,21.9999,1
0.02,0.0344491,1.00001,20.9996,19.9996,21.9996,1
0.03,0.0484988,1.00001,20.9992,19.9992,21.9992,1
0.04,0.0608926,1.00002,20.9987,19.9987,21.9987,1
0.05,0.0719466,1.00002,20.998,19.998,21.998,1
0.06,0.0818281,1.00003,20.9972,19.9973,21.9972,1.00001
0.07,0.0907038,1.00003,20.9964,19.9964,21.9964,1.00001
0.08,0.0987221,1.00004,20.9954,19.9955,21.9954,1.00001
0.09,0.105991,1.00004,20.9944,19.9945,21.9944,1.00001
0.1,0.112614,1.00005,20.9933,19.9934,21.9933,1.00001
0.11,0.11868,1.00005,20.9922,19.9923,21.9922,1
0.12,0.124258,1.00006,20.991,19.9911,21.991,1
0.13,0.129412,1.00007,20.9897,19.9898,21.9897,1.00002
0.14,0.13422,1.00009,20.9884,19.9885,21.9884,1.00003
0.15,0.138673,1.0001,20.987,19.9871,21.987,1.00004
0.16,0.142813,1.00011,20.9856,19.9857,21.9856,1.00005
0.17,0.146649,1.00011,20.9842,19.9843,21.9842,1.00005
0.18,0.150208,1.00012,20.9827,19.9828,21.9827,1.00006
0.19,0.153527,1.00012,20.9812,19.9813,21.9812,1.00006
0.2,0.156645,1.00013,20.9796,19.9797,21.9796,1.00005
0.21,0.159554,1.00013,20.978,19.9782,21.978,1.00005
0.22,0.16231,1.00014,20.9764,19.9766,21.9764,1.00005
0.23,0.16492,1.00018,20.9748,19.9749,21.9747,1.00006
0.24,0.167428,1.00021,20.9731,19.9733,21.973,1.00008
0.25,0.169831,1.00023,20.9714,19.9716,21.9713,1.00009
0.26,0.172128,1.00025,20.9697,19.9699,21.9696,1.00009
0.27,0.174253,1.00027,20.968,19.9682,21.9679,1.00009
0.28,0.176293,1.00028,20.9662,19.9665,21.9661,1.00009
0.29,0.178227,1.00029,20.9645,19.9647,21.9643,1.00009
0.3,0.180058,1.00029,20.9627,19.9629,21.9625,1.00008
0.31,0.181813,1.00031,20.9609,19.9611,21.9607,1.00009
0.32,0.183509,1.00034,20.959,19.9593,21.9588,1.0001
0.33,0.185183,1.00037,20.9572,19.9575,21.957,1.00012
0.34,0.186816,1.00038,20.9553,19.9556,21.9551,1.00012
0.35,0.188394,1.00039,20.9535,19.9538,21.9532,1.00012
0.36,0.189839,1.0004,20.9516,19.9519,21.9513,1.00012
0.37,0.191218,1.0004,20.9497,19.95,21.9494,1.00012
0.38,0.192578,1.0004,20.9478,19.9481,21.9475,1.00011
0.39,0.19383,1.0004,20.9458,19.9461,21.9455,1.00011
0.4,0.195086,1.00042,20.9439,19.9442,21.9436,1.00012
0.41,0.196312,1.00044,20.9419,19.9422,21.9416,1.00014
0.42,0.197546,1.00044,20.94,19.9403,21.9397,1.00014
0.43,0.198739,1.00044,20.938,19.9383,21.9377,1.00014
0.44,0.199854,1.00044,20.936,19.9363,21.9357,1.00014
0.45,0.200888,1.00044,20.934,19.9343,21.9337,1.00013
0.46,0.201894,1.00043,20.932,19.9323,21.9317,1.00013
0.47,0.202867,1.00043,20.9299,19.9303,21.9296,1.00013
0.48,0.203844,1.00045,20.9279,19.9282,21.9276,1.00014
0.49,0.204853,1.00046,20.9259,19.9262,21.9256,1.00015
0.5,0.205862,1.00046,20.9238,19.9241,21.9235,1.00015
0.51,0.206809,1.00046,20.9218,19.9221,21.9215,1.00015
0.52,0.207677,1.00046,20.9197,19.92,21.9194,1.00015
0.53,0.208498,1.00045,20.9176,19.9179,21.9173,1.00015
0.54,0.209294,1.00044,20.9155,19.9158,21.9152,1.00014
0.55,0.210081,1.00045,20.9134,19.9137,21.9131,1.00014
0.56,0.210866,1.00046,20.9113,19.9116,21.911,1.00016
0.57,0.2117,1.00047,20.9092,19.9095,21.9089,1.00016
0.58,0.21254,1.00048,20.9071,19.9074,21.9068,1.00016
0.59,0.213268,1.00048,20.905,19.9053,21.9046,1.00016
0.6,0.21396,1.00048,20.9028,19.9032,21.9025,1.00015
0.61,0.214627,1.00047,20.9007,19.901,21.9004,1.00014
0.62,0.215282,1.00047,20.8985,19.8989,21.8982,1.00014
0.63,0.215948,1.00049,20.8964,19.8967,21.8961,1.00015
0.64,0.216653,1.00051,20.8942,19.8946,21.8939,1.00016
0.65,0.21737,1.00051,20.892,19.8924,21.8917,1.00016
0.66,0.218036,1.00052,20.8899,19.8903,21.8895,1.00016
0.67,0.218634,1.00052,20.8877,19.8881,21.8874,1.00015
0.68,0.219222,1.00052,20.8855,19.8859,21.8852,1.00014
0.69,0.219786,1.00051,20.8833,19.8837,21.883,1.00014
0.7,0.220319,1.00053,20.8811,19.8815,21.8808,1.00015
0.71,0.220904,1.00054,20.8789,19.8793,21.8786,1.00016
0.72,0.221494,1.00053,20.8767,19.8771,21.8764,1.00016
0.73,0.222086,1.00053,20.8745,19.8749,21.8741,1.00016
0.74,0.222576,1.00053,20.8722,19.8727,21.8719,1.00016
0.75,0.223055,1.00052,20.87,19.8704,21.8697,1.00015
0.76,0.22352,1.00051,20.8678,19.8682,21.8675,1.00015
0.77,0.224031,1.00052,20.8656,19.866,21.8653,1.00016
0.78,0.224631,1.00052,20.8633,19.8637,21.863,1.00017
0.79,0.225247,1.00051,20.8611,19.8615,21.8608,1.00017
0.8,0.225806,1.00051,20.8588,19.8592,21.8585,1.00017
0.81,0.226294,1.0005,20.8565,19.8569,21.8563,1.00017
0.82,0.226762,1.00049,20.8543,19.8547,21.854,1.00016
0.83,0.227223,1.00048,20.852,19.8524,21.8517,1.00016
0.84,0.227694,1.00049,20.8497,19.8501,21.8495,1.00017
0.85,0.228214,1.00051,20.8475,19.8478,21.8472,1.00017
0.86,0.228755,1.00051,20.8452,19.8455,21.8449,1.00017
0.87,0.22924,1.00052,20.8429,19.8433,21.8426,1.00017
0.88,0.229676,1.00052,20.8406,19.841,21.8403,1.00017
0.89,0.230116,1.00051,20.8383,19.8387,21.838,1.00016
0.9,0.230518,1.00052,20.836,19.8364,21.8356,1.00016
0.91,0.23097,1.00054,20.8337,19.8341,21.8333,1.00017
0.92,0.231454,1.00055,20.8314,19.8318,21.831,1.00017
0.93,0.231978,1.00055,20.8291,19.8295,21.8287,1.00017
0.94,0.23241,1.00055,20.8267,19.8271,21.8264,1.00017
0.95,0.232818,1.00055,20.8244,19.8248,21.824,1.00016
0.96,0.233206,1.00054,20.8221,19.8225,21.8217,1.00015
0.97,0.233595,1.00055,20.8197,19.8201,21.8194,1.00016
0.98,0.233992,1.00056,20.8174,19.8178,21.817,1.00017
0.99,0.234453,1.00056,20.8151,19.8154,21.8147,1.00017
1,0.234909,1.00055,20.8127,19.8131,21.8123,1.00017
1.01,0.235286,1.00055,20.8104,19.8107,21.81,1.00017
1.02,0.23561,1.00055,20.808,19.8084,21.8076,1.00016
1.03,0.235955,1.00053,20.8057,19.806,21.8053,1.00015
1.04,0.236292,1.00054,20.8033,19.8037,21.8029,1.00017
1.05,0.236719,1.00055,20.8009,19.8013,21.8006,1.00018
1.06,0.237151,1.00055,20.7986,19.7989,21.7982,1.00018
1.07,0.237554,1.00055,20.7962,19.7966,21.7958,1.00018
1.08,0.237864,1.00055,20.7938,19.7942,21.7935,1.00018
1.09,0.238176,1.00054,20.7914,19.7918,21.7911,1.00017
1.1,0.238464,1.00054,20.7891,19.7894,21.7887,1.00017
1.11,0.238793,1.00055,20.7867,19.787,21.7863,1.00018
1.12,0.239168,1.00056,20.7843,19.7847,21.7839,1.00018
1.13,0.239586,1.00056,20.7819,19.7823,21.7815,1.00018
1.14,0.239859,1.00057,20.7795,19.7799,21.7791,1.00018
1.15,0.240136,1.00056,20.7771,19.7775,21.7767,1.00018
1.16,0.240384,1.00055,20.7747,19.7751,21.7743,1.00016
1.17,0.240666,1.00057,20.7723,19.7727,21.7719,1.00018
1.18,0.240975,1.00059,20.7699,19.7703,21.7695,1.00018
1.19,0.241322,1.0006,20.7675,19.7679,21.7671,1.00018
1.2,0.241656,1.00061,20.7651,19.7655,21.7647,1.00018
1.21,0.2419,1.00061,20.7626,19.7631,21.7623,1.00018
1.22,0.242157,1.00061,20.7602,19.7607,21.7598,1.00017
1.23,0.24239,1.00061,20.7578,19.7583,21.7574,1.00017
1.24,0.24262,1.00063,20.7554,19.7559,21.755,1.00018
1.25,0.242908,1.00063,20.7529,19.7534,21.7525,1.00019
1.26,0.243223,1.00063,20.7505,19.751,21.7501,1.00019
1.27,0.243461,1.00064,20.7481,19.7486,21.7477,1.00019
1.28,0.243658,1.00064,20.7456,19.7462,21.7453,1.00019
1.29,0.243857,1.00062,20.7432,19.7437,21.7428,1.00018
1.3,0.244088,1.00062,20.7408,19.7413,21.7404,1.00019
1.31,0.244422,1.00062,20.7383,19.7388,21.738,1.0002
1.32,0.244779,1.00061,20.7359,19.7364,21.7356,1.0002
1.33,0.245089,1.0006,20.7334,19.7339,21.7331,1.00021
1.34,0.245319,1.00059,20.731,19.7315,21.7307,1.0002
1.35,0.245559,1.00058,20.7285,19.729,21.7282,1.00019
1.36,0.245798,1.00058,20.7261,19.7265,21.7258,1.00019
1.37,0.246072,1.00059,20.7236,19.7241,21.7233,1.0002
1.38,0.246404,1.0006,20.7212,19.7216,21.7208,1.00021
1.39,0.246729,1.00061,20.7187,19.7191,21.7183,1.00021
1.4,0.24697,1.00062,20.7162,19.7167,21.7158,1.00021
1.41,0.247218,1.00062,20.7138,19.7142,21.7134,1.0002
1.42,0.247443,1.00062,20.7113,19.7117,21.7109,1.00019
1.43,0.247708,1.00064,20.7088,19.7093,21.7084,1.0002
1.44,0.24803,1.00065,20.7063,19.7068,21.7059,1.00021
1.45,0.248379,1.00066,20.7038,19.7043,21.7034,1.00021
1.46,0.248634,1.00067,20.7014,19.7018,21.7009,1.00021
1.47,0.248868,1.00066,20.6989,19.6994,21.6984,1.0002
1.48,0.249093,1.00065,20.6964,19.6969,21.6959,1.00019
1.49,0.24931,1.00066,20.6939,19.6944,21.6934,1.0002
1.5,0.249591,1.00067,20.6914,19.6919,21.6909,1.00021
1.51,0.249897,1.00067,20.6889,19.6894,21.6884,1.00021
1.52,0.250164,1.00068,20.6864,19.6869,21.6859,1.00021
1.53,0.250358,1.00067,20.6839,19.6844,21.6834,1.00021
1.54,0.25054,1.00066,20.6814,19.6819,21.6809,1.0002
1.55,0.250736,1.00066,20.6789,19.6793,21.6784,1.0002
1.56,0.250986,1.00067,20.6764,19.6768,21.6759,1.00021
1.57,0.251299,1.00067,20.6739,19.6743,21.6734,1.00022
1.58,0.251562,1.00067,20.6714,19.6718,21.6709,1.00022
1.59,0.251742,1.00067,20.6688,19.6693,21.6684,1.00022
1.6,0.251917,1.00066,20.6663,19.6668,21.6659,1.00021
1.61,0.25208,1.00066,20.6638,19.6643,21.6634,1.00021
1.62,0.252272,1.00067,20.6613,19.6617,21.6608,1.00022
1.63,0.252551,1.00068,20.6588,19.6592,21.6583,1.00022
1.64,0.252805,1.00068,20.6562,19.6567,21.6558,1.00023
1.65,0.25297,1.00068,20.6537,19.6542,21.6533,1.00022
1.66,0.253121,1.00068,20.6512,19.6517,21.6507,1.00021
1.67,0.253273,1.00067,20.6486,19.6491,21.6482,1.0002
1.68,0.253448,1.00069,20.6461,19.6466,21.6457,1.00021
1.69,0.253703,1.0007,20.6436,19.6441,21.6431,1.00022
1.7,0.253962,1.00071,20.641,19.6416,21.6406,1.00022
1.71,0.254128,1.00072,20.6385,19.639,21.638,1.00022
1.72,0.254282,1.00071,20.636,19.6365,21.6355,1.00021
1.73,0.254407,1.0007,20.6334,19.634,21.633,1.0002
1.74,0.25452,1.00072,20.6309,19.6314,21.6304,1.00021
1.75,0.254701,1.00072,20.6283,19.6289,21.6279,1.00022
1.76,0.254912,1.00071,20.6258,19.6263,21.6253,1.00022
1.77,0.255066,1.00072,20.6232,19.6238,21.6228,1.00022
1.78,0.255159,1.00071,20.6207,19.6212,21.6202,1.00021
1.79,0.255264,1.00069,20.6181,19.6187,21.6177,1.0002
1.8,0.2554,1.00069,20.6156,19.6161,21.6152,1.00021
1.81,0.255652,1.00068,20.613,19.6136,21.6126,1.00022
1.82,0.255907,1.00068,20.6105,19.611,21.6101,1.00023
1.83,0.256103,1.00067,20.6079,19.6084,21.6075,1.00023
1.84,0.256251,1.00066,20.6053,19.6059,21.605,1.00022
1.85,0.256384,1.00064,20.6028,19.6033,21.6024,1.00021
1.86,0.256539,1.00065,20.6002,19.6007,21.5998,1.00021
1.87,0.256741,1.00066,20.5977,19.5981,21.5973,1.00022
1.88,0.256992,1.00067,20.5951,19.5956,21.5947,1.00022
1.89,0.257182,1.00068,20.5925,19.593,21.5921,1.00022
1.9,0.257332,1.00068,20.5899,19.5904,21.5895,1.00022
1.91,0.257475,1.00067,20.5874,19.5879,21.5869,1.0002
1.92,0.257625,1.00068,20.5848,19.5853,21.5843,1.00021
1.93,0.257835,1.00069,20.5822,19.5827,21.5818,1.00022
1.94,0.258096,1.0007,20.5796,19.5801,21.5792,1.00022
1.95,0.25831,1.00071,20.5771,19.5776,21.5766,1.00022
1.96,0.258454,1.00071,20.5745,19.575,21.574,1.00021
1.97,0.258611,1.00069,20.5719,19.5724,21.5714,1.0002
1.98,0.258749,1.0007,20.5693,19.5698,21.5688,1.00021
1.99,0.258939,1.00071,20.5667,19.5672,21.5662,1.00021
2,0.259179,1.00071,20.5641,19.5646,21.5636,1.00022
2.01,0.25939,1.00071,20.5615,19.562,21.561,1.00022
2.02,0.259507,1.0007,20.5589,19.5594,21.5585,1.00022
2.03,0.259622,1.00069,20.5563,19.5568,21.5559,1.00021
2.04,0.259751,1.00069,20.5538,19.5542,21.5533,1.00021
2.05,0.259943,1.00069,20.5512,19.5516,21.5507,1.00022
2.06,0.260189,1.0007,20.5486,19.549,21.5481,1.00023
2.07,0.260384,1.0007,20.546,19.5464,21.5455,1.00023
2.08,0.260499,1.0007,20.5433,19.5438,21.5429,1.00023
2.09,0.260605,1.00068,20.5407,19.5412,21.5403,1.00021
2.1,0.260716,1.00068,20.5381,19.5386,21.5377,1.00022
2.11,0.260875,1.00069,20.5355,19.536,21.5351,1.00022
2.12,0.261092,1.0007,20.5329,19.5334,21.5325,1.00023
2.13,0.261252,1.00071,20.5303,19.5308,21.5298,1.00023
2.14,0.261343,1.00071,20.5277,19.5282,21.5272,1.00023
2.15,0.261421,1.0007,20.5251,19.5256,21.5246,1.00021
2.16,0.261511,1.00071,20.5225,19.523,21.522,1.00022
2.17,0.26152,1.00072,20.5199,19.5204,21.5194,1.00022
2.18,0.261746,1.00074,20.5172,19.5178,21.5168,1.00023
2.19,0.261921,1.00075,20.5146,19.5152,21.5141,1.00023
2.2,0.262019,1.00075,20.512,19.5126,21.5115,1.00022
2.21,0.262117,1.00075,20.5094,19.51,21.5089,1.00021
2.22,0.262192,1.00075,20.5068,19.5074,21.5063,1.00022
2.23,0.262293,1.00076,20.5041,19.5047,21.5037,1.00023
2.24,0.262454,1.00077,20.5015,19.5021,21.501,1.00023
2.25,0.262584,1.00078,20.4989,19.4995,21.4984,1.00024
2.26,0.262634,1.00078,20.4963,19.4969,21.4958,1.00023
2.27,0.262674,1.00077,20.4936,19.4943,21.4932,1.00022
2.28,0.262754,1.00076,20.491,19.4916,21.4906,1.00023
2.29,0.262929,1.00076,20.4884,19.489,21.488,1.00024
2.3,0.26315,1.00075,20.4858,19.4864,21.4854,1.00025
2.31,0.263312,1.00074,20.4831,19.4837,21.4827,1.00025
2.32,0.263408,1.00073,20.4805,19.4811,21.4801,1.00025
2.33,0.26349,1.00071,20.4779,19.4784,21.4775,1.00023
2.34,0.263588,1.00071,20.4752,19.4758,21.4748,1.00024
2.35,0.263756,1.00072,20.4726,19.4731,21.4722,1.00024
2.36,0.263973,1.00073,20.47,19.4705,21.4695,1.00025
2.37,0.264112,1.00074,20.4673,19.4679,21.4669,1.00025
2.38,0.264246,1.00074,20.4647,19.4652,21.4642,1.00024
2.39,0.264363,1.00073,20.462,19.4626,21.4616,1.00023
2.4,0.264498,1.00075,20.4594,19.4599,21.4589,1.00023
2.41,0.2647,1.00076,20.4567,19.4573,21.4562,1.00024
2.42,0.264944,1.00077,20.4541,19.4546,21.4536,1.00025
2.43,0.265101,1.00078,20.4514,19.452,21.4509,1.00025
2.44,0.26523,1.00078,20.4488,19.4493,21.4483,1.00024
2.45,0.265343,1.00076,20.4461,19.4467,21.4456,1.00022
2.46,0.265465,1.00077,20.4435,19.444,21.443,1.00023
2.47,0.265645,1.00078,20.4408,19.4414,21.4403,1.00024
2.48,0.265859,1.00078,20.4382,19.4387,21.4376,1.00025
2.49,0.265994,1.00079,20.4355,19.436,21.435,1.00025
2.5,0.266076,1.00078,20.4329,19.4334,21.4323,1.00024
2.51,0.266162,1.00077,20.4302,19.4307,21.4297,1.00023
2.52,0.26628,1.00077,20.4275,19.4281,21.427,1.00024
2.53,0.266477,1.00078,20.4249,19.4254,21.4243,1.00025
2.54,0.266674,1.00079,20.4222,19.4227,21.4217,1.00026
2.55,0.26678,1.00079,20.4195,19.4201,21.419,1.00026
2.56,0.26686,1.00078,20.4169,19.4174,21.4164,1.00025
2.57,0.266926,1.00077,20.4142,19.4147,21.4137,1.00024
2.58,0.267026,1.00078,20.4115,19.4121,21.411,1.00025
2.59,0.267196,1.00079,20.4089,19.4094,21.4083,1.00026
2.6,0.267358,1.0008,20.4062,19.4067,21.4057,1.00027
2.61,0.267431,1.0008,20.4035,19.4041,21.403,1.00026
2.62,0.267494,1.00079,20.4008,19.4014,21.4003,1.00025
2.63,0.267553,1.00079,20.3982,19.3987,21.3976,1.00024
2.64,0.267659,1.0008,20.3955,19.3961,21.395,1.00025
2.65,0.267833,1.00082,20.3928,19.3934,21.3923,1.00026
2.66,0.267988,1.00083,20.3901,19.3907,21.3896,1.00026
2.67,0.26805,1.00083,20.3875,19.3881,21.3869,1.00026
2.68,0.268116,1.00082,20.3848,19.3854,21.3842,1.00024
2.69,0.268164,1.00082,20.3821,19.3827,21.3816,1.00024
2.7,0.268233,1.00083,20.3794,19.38,21.3789,1.00025
2.71,0.268371,1.00083,20.3767,19.3774,21.3762,1.00026
2.72,0.268488,1.00083,20.3741,19.3747,21.3735,1.00026
2.73,0.268518,1.00083,20.3714,19.372,21.3708,1.00026
2.74,0.268537,1.00081,20.3687,19.3693,21.3682,1.00024
2.75,0.268594,1.0008,20.366,19.3666,21.3655,1.00025
2.76,0.268757,1.0008,20.3633,19.3639,21.3628,1.00026
2.77,0.268969,1.0008,20.3606,19.3612,21.3602,1.00027
2.78,0.269108,1.0008,20.3579,19.3585,21.3575,1.00027
2.79,0.269186,1.00078,20.3552,19.3558,21.3548,1.00026
2.8,0.269261,1.00076,20.3526,19.3531,21.3521,1.00025
2.81,0.269351,1.00077,20.3499,19.3504,21.3494,1.00025
2.82,0.269509,1.00078,20.3472,19.3477,21.3467,1.00026
2.83,0.269701,1.00079,20.3445,19.345,21.344,1.00027
2.84,0.269797,1.0008,20.3418,19.3423,21.3413,1.00026
2.85,0.269886,1.00079,20.3391,19.3396,21.3386,1.00025
2.86,0.269954,1.00078,20.3364,19.3369,21.3359,1.00024
2.87,0.270059,1.0008,20.3337,19.3342,21.3332,1.00025
2.88,0.270239,1.00081,20.331,19.3315,21.3304,1.00026
2.89,0.270432,1.00082,20.3283,19.3289,21.3277,1.00026
2.9,0.270526,1.00082,20.3256,19.3262,21.325,1.00026
2.91,0.270617,1.00081,20.3229,19.3234,21.3223,1.00024
2.92,0.270692,1.0008,20.3202,19.3207,21.3196,1.00024
2.93,0.270802,1.00081,20.3175,19.318,21.3169,1.00025
2.94,0.27097,1.00081,20.3147,19.3153,21.3142,1.00025
2.95,0.271141,1.00081,20.312,19.3126,21.3115,1.00026
2.96,0.271205,1.00081,20.3093,19.3099,21.3088,1.00025
2.97,0.271257,1.0008,20.3066,19.3072,21.3061,1.00024
2.98,0.271323,1.00079,20.3039,19.3044,21.3034,1.00024
2.99,0.271454,1.0008,20.3012,19.3017,21.3006,1.00025
3,0.271644,1.0008,20.2985,19.299,21.2979,1.00026
3.01,0.271772,1.0008,20.2958,19.2963,21.2952,1.00026
3.02,0.271822,1.0008,20.293,19.2936,21.2925,1.00026
3.03,0.271873,1.00078,20.2903,19.2909,21.2898,1.00025
3.04,0.271933,1.00078,20.2876,19.2881,21.2871,1.00025
3.05,0.272054,1.0008,20.2849,19.2854,21.2844,1.00026
3.06,0.272228,1.00081,20.2822,19.2827,21.2816,1.00027
3.07,0.272284,1.00081,20.2794,19.28,21.2789,1.00026
3.08,0.272319,1.0008,20.2767,19.2773,21.2762,1.00026
3.09,0.272336,1.00079,20.274,19.2746,21.2735,1.00024
3.1,0.27238,1.00081,20.2713,19.2719,21.2707,1.00025
3.11,0.27251,1.00083,20.2686,19.2691,21.268,1.00026
3.12,0.272659,1.00084,20.2658,19.2664,21.2653,1.00026
3.13,0.272689,1.00085,20.2631,19.2637,21.2626,1.00026
3.14,0.272735,1.00085,20.2604,19.261,21.2598,1.00025
3.15,0.272749,1.00084,20.2576,19.2583,21.2571,1.00024
3.16,0.272783,1.00086,20.2549,19.2556,21.2544,1.00025
3.17,0.272874,1.00086,20.2522,19.2528,21.2516,1.00027
3.18,0.272995,1.00087,20.2495,19.2501,21.2489,1.00027
3.19,0.27298,1.00087,20.2467,19.2474,21.2462,1.00027
3.2,0.272982,1.00086,20.244,19.2447,21.2435,1.00026
3.21,0.273001,1.00084,20.2413,19.2419,21.2408,1.00025
3.22,0.27313,1.00084,20.2385,19.2392,21.2381,1.00027
3.23,0.273301,1.00084,20.2358,19.2365,21.2353,1.00028
3.24,0.273424,1.00083,20.2331,19.2337,21.2326,1.00028
3.25,0.273484,1.00082,20.2303,19.231,21.2299,1.00027
3.26,0.273524,1.0008,20.2276,19.2282,21.2272,1.00026
3.27,0.273599,1.00081,20.2249,19.2255,21.2244,1.00026
3.28,0.273736,1.00082,20.2221,19.2227,21.2217,1.00028
3.29,0.273912,1.00083,20.2194,19.22,21.2189,1.00028
3.3,0.273988,1.00084,20.2167,19.2173,21.2162,1.00028
3.31,0.274063,1.00084,20.2139,19.2145,21.2134,1.00027
3.32,0.27413,1.00083,20.2112,19.2118,21.2106,1.00025
3.33,0.274237,1.00085,20.2084,19.2091,21.2079,1.00027
3.34,0.274411,1.00087,20.2057,19.2063,21.2051,1.00028
3.35,0.274585,1.00088,20.203,19.2036,21.2024,1.00028
3.36,0.274662,1.00088,20.2002,19.2008,21.1996,1.00028
3.37,0.274739,1.00087,20.1975,19.1981,21.1969,1.00026
3.38,0.274803,1.00086,20.1947,19.1953,21.1941,1.00026
3.39,0.274909,1.00087,20.192,19.1926,21.1914,1.00027
3.4,0.275069,1.00088,20.1892,19.1898,21.1886,1.00028
3.41,0.275207,1.00088,20.1865,19.1871,21.1859,1.00028
3.42,0.275245,1.00088,20.1837,19.1843,21.1831,1.00028
3.43,0.275282,1.00086,20.181,19.1816,21.1804,1.00026
3.44,0.275341,1.00086,20.1782,19.1788,21.1776,1.00027
3.45,0.275482,1.00087,20.1755,19.1761,21.1749,1.00028
3.46,0.275644,1.00088,20.1727,19.1733,21.1721,1.00029
3.47,0.275723,1.00088,20.17,19.1706,21.1694,1.00029
3.48,0.275761,1.00087,20.1672,19.1678,21.1666,1.00028
3.49,0.27579,1.00085,20.1644,19.165,21.1639,1.00027
3.5,0.275844,1.00086,20.1617,19.1623,21.1611,1.00028
3.51,0.275973,1.00088,20.1589,19.1595,21.1583,1.00029
3.52,0.276094,1.00088,20.1562,19.1568,21.1556,1.00029
3.53,0.276134,1.00088,20.1534,19.154,21.1528,1.00029
3.54,0.276156,1.00087,20.1506,19.1513,21.1501,1.00028
3.55,0.276181,1.00087,20.1479,19.1485,21.1473,1.00027
3.56,0.276262,1.00089,20.1451,19.1457,21.1445,1.00028
3.57,0.276402,1.0009,20.1424,19.143,21.1418,1.00029
3.58,0.276505,1.00091,20.1396,19.1403,21.139,1.00029
3.59,0.276527,1.00091,20.1368,19.1375,21.1362,1.00028
3.6,0.276535,1.0009,20.1341,19.1347,21.1335,1.00027
3.61,0.27653,1.0009,20.1313,19.132,21.1307,1.00027
3.62,0.276576,1.00091,20.1285,19.1292,21.1279,1.00028
3.63,0.276679,1.00091,20.1258,19.1264,21.1252,1.00029
3.64,0.276698,1.00091,20.123,19.1237,21.1224,1.00028
3.65,0.276689,1.0009,20.1202,19.1209,21.1197,1.00028
3.66,0.276672,1.00087,20.1175,19.1181,21.1169,1.00026
3.67,0.276731,1.00088,20.1147,19.1154,21.1142,1.00027
3.68,0.276878,1.00087,20.1119,19.1126,21.1114,1.00029
3.69,0.277009,1.00087,20.1092,19.1098,21.1087,1.00029
3.7,0.277061,1.00086,20.1064,19.107,21.1059,1.00029
3.71,0.277093,1.00084,20.1036,19.1043,21.1031,1.00027
3.72,0.277131,1.00083,20.1009,19.1015,21.1004,1.00027
3.73,0.27721,1.00085,20.0981,19.0987,21.0976,1.00028
3.74,0.277358,1.00086,20.0953,19.0959,21.0948,1.00029
3.75,0.277449,1.00086,20.0925,19.0932,21.092,1.00029
