time,velocity,ratio,centerX,Xmax,Xmin,Ymax
0,0,1,1.25,0.25,2.25,1
0.01,0.0152126,1.00003,1.24992,0.249966,2.24991,1.00001
0.02,0.0280882,1.00013,1.24971,0.249876,2.24966,1.00002
0.03,0.0391196,1.00028,1.24937,0.249739,2.24928,1.00005
0.04,0.0486595,1.00048,1.24893,0.249558,2.24878,1.00009
0.05,0.056939,1.00072,1.24841,0.249337,2.24818,1.00014
0.06,0.0641804,1.00099,1.2478,0.249078,2.24749,1.0002
0.07,0.0705159,1.0013,1.24713,0.248783,2.24672,1.00027
0.08,0.0760709,1.00164,1.2464,0.248454,2.24588,1.00035
0.09,0.0809464,1.002,1.24561,0.248092,2.24497,1.00043
0.1,0.085232,1.00238,1.24478,0.247703,2.244,1.00053
0.11,0.089003,1.00278,1.24391,0.247286,2.24299,1.00063
0.12,0.0923283,1.00321,1.24301,0.246841,2.24192,1.00074
0.13,0.0952846,1.00365,1.24207,0.24637,2.24082,1.00087
0.14,0.0978858,1.00411,1.2411,0.245873,2.23968,1.001
0.15,0.100176,1.00458,1.24011,0.245351,2.23851,1.00114
0.16,0.102187,1.00505,1.2391,0.244807,2.23731,1.00128
0.17,0.103943,1.00552,1.23807,0.244241,2.23608,1.00142
0.18,0.105485,1.006,1.23703,0.243653,2.23483,1.00156
0.19,0.106835,1.00648,1.23597,0.243046,2.23356,1.00171
0.2,0.108007,1.00697,1.23489,0.242421,2.23226,1.00185
0.21,0.10902,1.00745,1.23381,0.241775,2.23095,1.00199
0.22,0.109887,1.00793,1.23271,0.241115,2.22962,1.00213
0.23,0.11062,1.0084,1.23161,0.240437,2.22828,1.00227
0.24,0.111231,1.00887,1.2305,0.239743,2.22693,1.00241
0.25,0.111738,1.00934,1.22939,0.239033,2.22557,1.00254
0.26,0.112146,1.00981,1.22827,0.23831,2.2242,1.00269
0.27,0.112488,1.01027,1.22715,0.237574,2.22284,1.00283
0.28,0.112765,1.01073,1.22602,0.236827,2.22147,1.00297
0.29,0.112964,1.01117,1.2249,0.236068,2.2201,1.0031
0.3,0.113105,1.01161,1.22377,0.235299,2.21874,1.00323
0.31,0.113197,1.01203,1.22264,0.234521,2.21738,1.00336
0.32,0.11322,1.01244,1.22151,0.233731,2.21603,1.00348
0.33,0.113202,1.01284,1.22037,0.23293,2.21468,1.00359
0.34,0.11315,1.01322,1.21924,0.232118,2.21334,1.0037
0.35,0.11305,1.01359,1.21811,0.231299,2.212,1.00381
0.36,0.112903,1.01395,1.21698,0.230472,2.21067,1.00391
0.37,0.112703,1.0143,1.21586,0.229639,2.20935,1.00401
0.38,0.112449,1.01463,1.21473,0.228799,2.20804,1.0041
0.39,0.112187,1.01497,1.21361,0.227953,2.20673,1.00421
0.4,0.111932,1.0153,1.21249,0.227101,2.20544,1.00431
0.41,0.111667,1.01562,1.21137,0.226244,2.20415,1.0044
0.42,0.111404,1.01592,1.21026,0.225383,2.20288,1.00449
0.43,0.111112,1.01622,1.20915,0.224517,2.20161,1.00458
0.44,0.110819,1.0165,1.20804,0.22365,2.20036,1.00466
0.45,0.110463,1.01677,1.20693,0.222781,2.19911,1.00474
0.46,0.110121,1.01703,1.20583,0.221911,2.19788,1.00481
0.47,0.109754,1.01729,1.20473,0.221039,2.19665,1.00488
0.48,0.109307,1.01753,1.20364,0.220167,2.19544,1.00495
0.49,0.10896,1.01776,1.20255,0.21929,2.19423,1.00501
0.5,0.108586,1.01798,1.20146,0.218403,2.19303,1.00507
0.51,0.108194,1.01819,1.20037,0.217508,2.19184,1.00512
0.52,0.107783,1.01839,1.1993,0.216611,2.19066,1.00518
0.53,0.107372,1.0186,1.19822,0.215712,2.18949,1.00524
0.54,0.10698,1.01879,1.19715,0.214812,2.18832,1.0053
0.55,0.10659,1.01898,1.19608,0.213909,2.18717,1.00535
0.56,0.106213,1.01916,1.19502,0.213006,2.18601,1.00541
0.57,0.105845,1.01933,1.19396,0.212101,2.18487,1.00546
0.58,0.105492,1.0195,1.1929,0.211196,2.18375,1.0055
0.59,0.105119,1.01965,1.19185,0.210291,2.18262,1.00555
0.6,0.104731,1.0198,1.1908,0.209387,2.18151,1.00559
0.61,0.104335,1.01995,1.18976,0.208483,2.1804,1.00563
0.62,0.103938,1.02009,1.18872,0.20758,2.1793,1.00566
0.63,0.103524,1.02022,1.18768,0.206679,2.17821,1.00569
0.64,0.103106,1.02035,1.18665,0.205778,2.17712,1.00572
0.65,0.102698,1.02047,1.18562,0.204879,2.17603,1.00575
0.66,0.102285,1.02059,1.1846,0.203981,2.17495,1.00578
0.67,0.101898,1.02072,1.18358,0.203084,2.17388,1.00582
0.68,0.101529,1.02084,1.18256,0.202185,2.17282,1.00585
0.69,0.101158,1.02096,1.18155,0.201281,2.17176,1.00589
0.7,0.100794,1.02107,1.18054,0.200373,2.1707,1.00592
0.71,0.100437,1.02117,1.17953,0.199465,2.16965,1.00595
0.72,0.100081,1.02127,1.17853,0.198556,2.16861,1.00598
0.73,0.0997379,1.02137,1.17753,0.197648,2.16757,1.00601
0.74,0.0993988,1.02146,1.17654,0.196741,2.16654,1.00603
0.75,0.0990421,1.02154,1.17555,0.195836,2.16551,1.00605
0.76,0.0986816,1.02163,1.17456,0.194933,2.16449,1.00608
0.77,0.098324,1.02171,1.17357,0.194031,2.16347,1.00609
0.78,0.0979545,1.02179,1.17259,0.193132,2.16245,1.00611
0.79,0.0975816,1.02186,1.17162,0.192235,2.16144,1.00613
0.8,0.0972055,1.02194,1.17064,0.191342,2.16043,1.00614
0.81,0.0968247,1.02201,1.16967,0.190451,2.15942,1.00615
0.82,0.0964579,1.02209,1.16871,0.189562,2.15842,1.00618
0.83,0.0961179,1.02218,1.16774,0.188677,2.15743,1.0062
0.84,0.0957946,1.02226,1.16679,0.187794,2.15643,1.00623
0.85,0.0954834,1.02234,1.16583,0.186933,2.15545,1.00625
0.86,0.0951592,1.02242,1.16488,0.186066,2.15447,1.00627
0.87,0.0948221,1.0225,1.16393,0.185195,2.15349,1.00629
0.88,0.094493,1.02258,1.16298,0.184335,2.15252,1.00631
0.89,0.094181,1.02265,1.16204,0.183472,2.15155,1.00633
0.9,0.0937823,1.02271,1.1611,0.182608,2.15059,1.00634
0.91,0.0935067,1.02278,1.16016,0.181743,2.14963,1.00636
0.92,0.0932244,1.02284,1.15923,0.180879,2.14868,1.00637
0.93,0.0929323,1.0229,1.1583,0.180014,2.14772,1.00639
0.94,0.0926281,1.02296,1.15737,0.179156,2.14677,1.0064
0.95,0.0923234,1.02302,1.15645,0.178304,2.14582,1.00641
0.96,0.0920121,1.02308,1.15553,0.177455,2.14488,1.00641
0.97,0.0916881,1.02314,1.15461,0.176607,2.14393,1.00642
0.98,0.0913607,1.0232,1.1537,0.175763,2.14299,1.00643
0.99,0.0910543,1.02327,1.15279,0.174922,2.14206,1.00645
1,0.0907644,1.02334,1.15188,0.174084,2.14112,1.00647
1.01,0.0904884,1.0234,1.15097,0.173248,2.14019,1.00649
1.02,0.0902278,1.02347,1.15007,0.172416,2.13926,1.0065
1.03,0.0899612,1.02353,1.14917,0.171587,2.13834,1.00652
1.04,0.0896917,1.02359,1.14827,0.170755,2.13742,1.00654
1.05,0.0894038,1.02365,1.14738,0.169926,2.13651,1.00655
1.06,0.0891318,1.02371,1.14648,0.169098,2.1356,1.00656
1.07,0.0888651,1.02377,1.1456,0.168273,2.13469,1.00658
1.08,0.0885897,1.02382,1.14471,0.167451,2.13378,1.00659
1.09,0.0883007,1.02388,1.14382,0.166632,2.13288,1.0066
1.1,0.0880027,1.02393,1.14294,0.165816,2.13198,1.00661
1.11,0.0876753,1.02399,1.14207,0.165003,2.13108,1.00662
1.12,0.0873563,1.02404,1.14119,0.164194,2.13019,1.00663
1.13,0.0870393,1.02409,1.14032,0.163389,2.1293,1.00664
1.14,0.0867114,1.02415,1.13945,0.162587,2.12841,1.00665
1.15,0.0863798,1.0242,1.13859,0.161789,2.12753,1.00665
1.16,0.0860666,1.02427,1.13773,0.160995,2.12665,1.00667
1.17,0.0857756,1.02433,1.13687,0.160205,2.12576,1.00669
1.18,0.0854989,1.0244,1.13601,0.159419,2.12488,1.00671
1.19,0.0852425,1.02447,1.13516,0.158636,2.124,1.00673
1.2,0.0849969,1.02453,1.13431,0.157855,2.12313,1.00674
1.21,0.0847555,1.02459,1.13346,0.157077,2.12226,1.00676
1.22,0.0845037,1.02465,1.13261,0.156304,2.1214,1.00677
1.23,0.0842489,1.02471,1.13177,0.155533,2.12054,1.00679
1.24,0.0839664,1.02477,1.13093,0.154761,2.11968,1.0068
1.25,0.0837008,1.02483,1.13009,0.15399,2.11883,1.00681
1.26,0.0834324,1.02489,1.12926,0.153222,2.11798,1.00683
1.27,0.0831607,1.02494,1.12843,0.152456,2.11713,1.00684
1.28,0.0828843,1.025,1.1276,0.151693,2.11628,1.00685
1.29,0.0826038,1.02505,1.12677,0.150933,2.11543,1.00686
1.3,0.0823206,1.02511,1.12595,0.150176,2.11459,1.00687
1.31,0.0820351,1.02516,1.12512,0.149423,2.11375,1.00687
1.32,0.081745,1.02521,1.12431,0.148674,2.11291,1.00688
1.33,0.0814455,1.02527,1.12349,0.147929,2.11207,1.00689
1.34,0.0811453,1.02533,1.12268,0.147186,2.11124,1.00691
1.35,0.0806081,1.0254,1.12187,0.146448,2.11041,1.00692
1.36,0.0803975,1.02547,1.12107,0.145713,2.10958,1.00694
1.37,0.0801937,1.02553,1.12026,0.144983,2.10876,1.00696
1.38,0.0799998,1.0256,1.11946,0.144256,2.10793,1.00697
1.39,0.0797956,1.02566,1.11866,0.143532,2.10711,1.00699
1.4,0.0795275,1.02573,1.11787,0.142812,2.1063,1.007
1.41,0.0793295,1.02579,1.11707,0.142096,2.10549,1.00701
1.42,0.0790645,1.02585,1.11628,0.141383,2.10468,1.00702
1.43,0.0788438,1.02592,1.11549,0.140674,2.10387,1.00704
1.44,0.0785671,1.02598,1.11471,0.139965,2.10306,1.00705
1.45,0.0782823,1.02604,1.11392,0.139255,2.10226,1.00706
1.46,0.0780419,1.0261,1.11314,0.138543,2.10146,1.00707
1.47,0.077753,1.02616,1.11236,0.137832,2.10066,1.00708
1.48,0.0774664,1.02622,1.11159,0.137122,2.09986,1.00709
1.49,0.0771722,1.02627,1.11082,0.136414,2.09906,1.0071
1.5,0.0768695,1.02633,1.11005,0.135708,2.09827,1.00711
1.51,0.076562,1.02638,1.10928,0.135003,2.09747,1.00712
1.52,0.07632,1.02644,1.10852,0.134302,2.09668,1.00713
1.53,0.0760097,1.02649,1.10776,0.133603,2.0959,1.00714
1.54,0.075711,1.02656,1.107,0.132906,2.09511,1.00716
1.55,0.0754181,1.02662,1.10624,0.132213,2.09433,1.00718
1.56,0.0751385,1.02669,1.10549,0.131521,2.09355,1.0072
1.57,0.0748743,1.02675,1.10474,0.130833,2.09278,1.00721
1.58,0.0746223,1.02681,1.10399,0.130149,2.09201,1.00723
1.59,0.0743774,1.02687,1.10325,0.129466,2.09124,1.00725
1.6,0.0740524,1.02693,1.10251,0.128787,2.09048,1.00726
1.61,0.0738307,1.02699,1.10177,0.128109,2.08972,1.00728
1.62,0.073598,1.02705,1.10103,0.127432,2.08896,1.00729
1.63,0.0733604,1.0271,1.1003,0.126758,2.08821,1.00731
1.64,0.0731105,1.02716,1.09957,0.126086,2.08746,1.00732
1.65,0.0728606,1.02721,1.09884,0.125417,2.08671,1.00733
1.66,0.0726113,1.02728,1.09811,0.124774,2.08596,1.00734
1.67,0.0723531,1.02736,1.09739,0.124163,2.08521,1.00735
1.68,0.072094,1.02743,1.09667,0.123527,2.08447,1.00736
1.69,0.0718369,1.02749,1.09595,0.122888,2.08373,1.00737
1.7,0.0715848,1.02756,1.09523,0.122257,2.08299,1.00738
1.71,0.0713306,1.02762,1.09452,0.121621,2.08226,1.00739
1.72,0.0710734,1.02767,1.0938,0.120984,2.08152,1.0074
1.73,0.0708001,1.02773,1.0931,0.120347,2.08079,1.0074
1.74,0.0705134,1.02779,1.09239,0.11971,2.08006,1.00741
1.75,0.0702349,1.02785,1.09169,0.119074,2.07934,1.00743
1.76,0.0699615,1.02791,1.09099,0.118441,2.07861,1.00744
1.77,0.0696915,1.02797,1.09029,0.117808,2.07789,1.00746
1.78,0.0694382,1.02804,1.08959,0.117195,2.07718,1.00747
1.79,0.0691928,1.02811,1.0889,0.116585,2.07646,1.00749
1.8,0.0689571,1.02818,1.08821,0.115975,2.07576,1.0075
1.81,0.0687265,1.02824,1.08752,0.115368,2.07505,1.00751
1.82,0.0684897,1.0283,1.08684,0.114762,2.07435,1.00753
1.83,0.0682503,1.02837,1.08615,0.114158,2.07365,1.00754
1.84,0.068013,1.02843,1.08547,0.113555,2.07296,1.00755
1.85,0.0677638,1.02849,1.0848,0.112955,2.07226,1.00756
1.86,0.067506,1.02855,1.08412,0.112357,2.07157,1.00758
1.87,0.0672417,1.02861,1.08345,0.111763,2.07088,1.00759
1.88,0.0669789,1.02868,1.08278,0.111173,2.07019,1.0076
1.89,0.066719,1.02874,1.08211,0.110585,2.06951,1.00761
1.9,0.0664559,1.0288,1.08144,0.11,2.06882,1.00762
1.91,0.0661819,1.02886,1.08078,0.109417,2.06814,1.00763
1.92,0.0659129,1.02892,1.08012,0.108838,2.06746,1.00764
1.93,0.0656488,1.02898,1.07946,0.10826,2.06679,1.00765
1.94,0.0653851,1.02904,1.07881,0.107683,2.06611,1.00765
1.95,0.0651152,1.0291,1.07816,0.107107,2.06544,1.00766
1.96,0.0648399,1.02916,1.07751,0.106534,2.06477,1.00767
1.97,0.0645575,1.02922,1.07686,0.105962,2.0641,1.00768
1.98,0.0642812,1.02929,1.07622,0.105393,2.06344,1.0077
1.99,0.0640099,1.02935,1.07558,0.104826,2.06278,1.00771
2,0.0637475,1.02942,1.07494,0.104262,2.06211,1.00773
2.01,0.0634961,1.02949,1.0743,0.1037,2.06146,1.00774
2.02,0.0632584,1.02955,1.07367,0.103141,2.0608,1.00775
2.03,0.0630267,1.02961,1.07304,0.102584,2.06015,1.00777
2.04,0.0627988,1.02967,1.07241,0.102029,2.05951,1.00778
2.05,0.0625735,1.02974,1.07178,0.101477,2.05887,1.0078
2.06,0.062349,1.0298,1.07116,0.100928,2.05823,1.00781
2.07,0.0621191,1.02986,1.07054,0.100382,2.05759,1.00782
2.08,0.0618833,1.02992,1.06992,0.0998384,2.05696,1.00784
2.09,0.0616411,1.02998,1.0693,0.0992971,2.05632,1.00785
2.1,0.061397,1.03004,1.06869,0.0987579,2.05569,1.00786
2.11,0.0611503,1.0301,1.06807,0.0982216,2.05506,1.00787
2.12,0.060899,1.03016,1.06746,0.0976878,2.05444,1.00788
2.13,0.0606557,1.03022,1.06686,0.0971553,2.05381,1.0079
2.14,0.0604125,1.03028,1.06625,0.0966293,2.05319,1.00791
2.15,0.0601637,1.03035,1.06565,0.0961083,2.05257,1.00792
2.16,0.0599167,1.03041,1.06505,0.0955905,2.05195,1.00792
2.17,0.0596715,1.03047,1.06445,0.0950755,2.05133,1.00793
2.18,0.0594309,1.03054,1.06386,0.0945631,2.05071,1.00794
2.19,0.0591894,1.0306,1.06326,0.0940536,2.0501,1.00795
2.2,0.0589463,1.03066,1.06267,0.0935475,2.04949,1.00796
2.21,0.0586883,1.03072,1.06209,0.0930416,2.04888,1.00796
2.22,0.0584212,1.03079,1.0615,0.092536,2.04828,1.00798
2.23,0.0581568,1.03086,1.06092,0.0920318,2.04767,1.00799
2.24,0.0578985,1.03092,1.06034,0.0915294,2.04707,1.00801
2.25,0.0576453,1.03099,1.05976,0.0910295,2.04648,1.00802
2.26,0.057398,1.03105,1.05919,0.0905314,2.04588,1.00803
2.27,0.0571619,1.03112,1.05861,0.0900352,2.04529,1.00805
2.28,0.0569377,1.03118,1.05804,0.0895415,2.04471,1.00806
2.29,0.056713,1.03124,1.05748,0.0890495,2.04412,1.00807
2.3,0.0564939,1.0313,1.05691,0.0885596,2.04354,1.00809
2.31,0.0562773,1.03136,1.05635,0.0880726,2.04296,1.0081
2.32,0.0560621,1.03142,1.05579,0.0875875,2.04239,1.00811
2.33,0.0558432,1.03148,1.05523,0.0871044,2.04181,1.00813
2.34,0.0556224,1.03155,1.05467,0.0866242,2.04124,1.00814
2.35,0.0553937,1.03161,1.05412,0.0861461,2.04067,1.00815
2.36,0.0551567,1.03167,1.05356,0.0856705,2.04011,1.00816
2.37,0.0549183,1.03173,1.05301,0.085198,2.03954,1.00817
2.38,0.0546822,1.03179,1.05247,0.0847279,2.03897,1.00818
2.39,0.0544487,1.03185,1.05192,0.0842596,2.03841,1.0082
2.4,0.0542175,1.03191,1.05138,0.0837932,2.03785,1.00821
2.41,0.0539889,1.03197,1.05084,0.0833292,2.03729,1.00822
2.42,0.0537575,1.03203,1.0503,0.0828684,2.03673,1.00822
2.43,0.053523,1.03209,1.04976,0.08241,2.03618,1.00823
2.44,0.0532833,1.03215,1.04923,0.0819548,2.03562,1.00824
2.45,0.053049,1.03221,1.0487,0.0815028,2.03507,1.00825
2.46,0.0528167,1.03227,1.04817,0.0810538,2.03452,1.00826
2.47,0.0525863,1.03233,1.04764,0.0806074,2.03398,1.00826
2.48,0.0523545,1.03239,1.04712,0.080163,2.03343,1.00827
2.49,0.0521181,1.03246,1.0466,0.0797208,2.03289,1.00828
2.5,0.051875,1.03252,1.04608,0.0792808,2.03235,1.00829
2.51,0.0516276,1.03259,1.04556,0.0788438,2.03181,1.00831
2.52,0.0513717,1.03265,1.04504,0.0784103,2.03128,1.00832
2.53,0.0511101,1.03272,1.04453,0.0779788,2.03075,1.00833
2.54,0.0508522,1.03278,1.04402,0.077548,2.03022,1.00834
2.55,0.0506098,1.03284,1.04352,0.0771179,2.0297,1.00836
2.56,0.0503786,1.0329,1.04301,0.0766884,2.02918,1.00837
2.57,0.0501634,1.03296,1.04251,0.0762602,2.02867,1.00838
2.58,0.0499556,1.03302,1.04201,0.0758335,2.02815,1.00839
2.59,0.0497555,1.03308,1.04151,0.075408,2.02764,1.00841
2.6,0.0495616,1.03314,1.04102,0.0749845,2.02713,1.00842
2.61,0.049367,1.03319,1.04052,0.0745621,2.02663,1.00843
2.62,0.0491736,1.03325,1.04003,0.0741413,2.02612,1.00844
2.63,0.0489776,1.0333,1.03954,0.0737218,2.02562,1.00845
2.64,0.0487786,1.03336,1.03905,0.0733047,2.02512,1.00846
2.65,0.0485788,1.03342,1.03856,0.0728897,2.02462,1.00847
2.66,0.0483741,1.03347,1.03808,0.0724764,2.02412,1.00848
2.67,0.0481678,1.03353,1.0376,0.0720645,2.02362,1.00849
2.68,0.047963,1.03358,1.03712,0.0716541,2.02313,1.0085
2.69,0.0477678,1.03364,1.03664,0.0712463,2.02263,1.00851
2.7,0.0475682,1.03369,1.03616,0.07084,2.02214,1.00852
2.71,0.0473691,1.03374,1.03569,0.0704359,2.02165,1.00853
2.72,0.0471713,1.0338,1.03522,0.0700334,2.02116,1.00853
2.73,0.0469711,1.03385,1.03475,0.0696331,2.02067,1.00854
2.74,0.0467699,1.0339,1.03428,0.0692342,2.02019,1.00855
2.75,0.0465685,1.03396,1.03381,0.0688367,2.0197,1.00855
2.76,0.0463662,1.03401,1.03335,0.068441,2.01922,1.00856
2.77,0.0461624,1.03406,1.03288,0.0680473,2.01874,1.00857
2.78,0.0459588,1.03411,1.03242,0.067656,2.01826,1.00857
2.79,0.0457558,1.03416,1.03197,0.0672676,2.01779,1.00857
2.8,0.0455461,1.03422,1.03151,0.0668812,2.01732,1.00859
2.81,0.0453322,1.03427,1.03106,0.0664962,2.01684,1.0086
2.82,0.0451174,1.03433,1.0306,0.0661128,2.01638,1.00861
2.83,0.0449045,1.03439,1.03015,0.0657317,2.01591,1.00862
2.84,0.0446844,1.03444,1.02971,0.065352,2.01544,1.00863
2.85,0.0444618,1.0345,1.02926,0.0649736,2.01498,1.00864
2.86,0.044221,1.03455,1.02882,0.0645964,2.01453,1.00865
2.87,0.0440029,1.0346,1.02838,0.0642207,2.01407,1.00866
2.88,0.0437908,1.03466,1.02794,0.0638465,2.01362,1.00867
2.89,0.0435891,1.03471,1.0275,0.0634747,2.01317,1.00868
2.9,0.0433926,1.03476,1.02707,0.0631056,2.01272,1.00869
2.91,0.0432008,1.03481,1.02664,0.0627383,2.01228,1.00871
2.92,0.0430148,1.03487,1.02621,0.062382,2.01184,1.00872
2.93,0.0428317,1.03493,1.02578,0.06203,2.0114,1.00873
2.94,0.0426559,1.03498,1.02535,0.061672,2.01096,1.00874
2.95,0.0424861,1.03504,1.02492,0.061314,2.01052,1.00875
2.96,0.0423199,1.03509,1.0245,0.0609576,2.01009,1.00876
2.97,0.0421567,1.03516,1.02408,0.0606279,2.00965,1.00878
2.98,0.0419953,1.03522,1.02366,0.0602906,2.00922,1.00879
2.99,0.0418316,1.03528,1.02324,0.059949,2.00879,1.00879
3,0.041666,1.03533,1.02282,0.059606,2.00836,1.0088
3.01,0.0414803,1.03539,1.02241,0.0592624,2.00793,1.00881
3.02,0.0413154,1.03544,1.02199,0.0589195,2.0075,1.00882
3.03,0.0411485,1.03549,1.02158,0.0585779,2.00707,1.00883
3.04,0.0409772,1.03555,1.02117,0.0582379,2.00665,1.00883
3.05,0.0408047,1.0356,1.02076,0.0578984,2.00623,1.00884
3.06,0.0406271,1.03565,1.02036,0.0575599,2.00581,1.00885
3.07,0.0404495,1.0357,1.01995,0.0572224,2.00539,1.00885
3.08,0.0402718,1.03575,1.01955,0.0568867,2.00497,1.00886
3.09,0.0400913,1.03579,1.01915,0.0565523,2.00456,1.00886
3.1,0.0399105,1.03584,1.01875,0.0562259,2.00414,1.00887
3.11,0.0397332,1.0359,1.01835,0.0559183,2.00373,1.00887
3.12,0.0395557,1.03596,1.01795,0.0556071,2.00332,1.00888
3.13,0.0393762,1.03602,1.01756,0.055294,2.00291,1.00888
3.14,0.0391961,1.03607,1.01717,0.05498,2.00251,1.00889
3.15,0.039017,1.03612,1.01678,0.0546662,2.0021,1.00889
3.16,0.0388379,1.03618,1.01639,0.0543538,2.0017,1.0089
3.17,0.038657,1.03623,1.016,0.0540417,2.0013,1.00891
3.18,0.0384747,1.03629,1.01561,0.05373,2.0009,1.00892
3.19,0.0382925,1.03634,1.01523,0.0534194,2.0005,1.00893
3.2,0.0381125,1.0364,1.01485,0.0531108,2.00011,1.00893
3.21,0.0379348,1.03646,1.01447,0.0528052,1.99971,1.00894
3.22,0.0377422,1.03651,1.01409,0.052501,1.99932,1.00895
3.23,0.0375495,1.03657,1.01372,0.0521974,1.99893,1.00896
3.24,0.0373559,1.03662,1.01334,0.0518946,1.99855,1.00897
3.25,0.0371643,1.03667,1.01297,0.0515928,1.99817,1.00898
3.26,0.0369824,1.03672,1.0126,0.0512918,1.99779,1.00899
3.27,0.0368071,1.03678,1.01223,0.050992,1.99741,1.009
3.28,0.0366387,1.03683,1.01186,0.0506944,1.99703,1.00901
3.29,0.0364748,1.03688,1.0115,0.0503975,1.99666,1.00902
3.3,0.0363128,1.03693,1.01113,0.0501014,1.99629,1.00903
3.31,0.0361526,1.03698,1.01077,0.0498072,1.99592,1.00904
3.32,0.035996,1.03703,1.01041,0.0495155,1.99555,1.00905
3.33,0.0358424,1.03709,1.01005,0.0492258,1.99518,1.00906
3.34,0.0356856,1.03714,1.0097,0.0489378,1.99482,1.00907
3.35,0.035533,1.03719,1.00934,0.0486588,1.99445,1.00908
3.36,0.0353842,1.03725,1.00899,0.0483865,1.99409,1.00909
3.37,0.035239,1.03731,1.00863,0.0481153,1.99372,1.0091
3.38,0.0350974,1.03737,1.00828,0.0478449,1.99336,1.00911
3.39,0.0349589,1.03743,1.00793,0.0475754,1.993,1.00912
3.4,0.0348233,1.03748,1.00758,0.0473069,1.99264,1.00912
3.41,0.0346907,1.03754,1.00724,0.0470393,1.99228,1.00913
3.42,0.03456,1.0376,1.00689,0.0467729,1.99192,1.00914
3.43,0.0344314,1.03765,1.00655,0.0465089,1.99156,1.00914
3.44,0.0343008,1.03771,1.0062,0.0462468,1.99121,1.00915
3.45,0.034168,1.03776,1.00586,0.045986,1.99085,1.00915
3.46,0.0340293,1.03782,1.00552,0.0457262,1.9905,1.00916
3.47,0.033888,1.03787,1.00518,0.0454667,1.99015,1.00916
3.48,0.0337449,1.03793,1.00484,0.0452094,1.9898,1.00917
3.49,0.0336013,1.03798,1.00451,0.0449536,1.98945,1.00917
3.5,0.0334566,1.03803,1.00417,0.0446992,1.9891,1.00918
3.51,0.0333103,1.03809,1.00384,0.0444467,1.98875,1.00918
3.52,0.0331649,1.03814,1.00351,0.044196,1.98841,1.00919
3.53,0.0330183,1.0382,1.00317,0.0439471,1.98807,1.00919
3.54,0.0328714,1.03825,1.00285,0.0436994,1.98773,1.00919
3.55,0.032724,1.0383,1.00252,0.0434537,1.98739,1.0092
3.56,0.0325753,1.03836,1.00219,0.0432089,1.98705,1.0092
3.57,0.0324274,1.03841,1.00187,0.0429656,1.98671,1.0092
3.58,0.0322747,1.03847,1.00154,0.0427239,1.98638,1.00921
3.59,0.0321242,1.03852,1.00122,0.0424842,1.98604,1.00922
