time,velocity,ratio,centerX,Xmax,Xmin,Ymax
0,0,1,8.5,7.5,9.5,1
0.01,0.0184391,1,8.49991,7.49991,9.4999,1
0.02,0.0344342,1.00001,8.49964,7.49965,9.49963,1
0.03,0.0484744,1.00001,8.49923,7.49924,9.49921,1
0.04,0.060863,1.00001,8.49869,7.49869,9.49867,1
0.05,0.0719171,1.00002,8.49802,7.49804,9.498,1
0.06,0.0817719,1.00002,8.49725,7.49728,9.49724,1
0.07,0.0906011,1.00002,8.49639,7.49643,9.49639,0.999999
0.08,0.0985851,1.00002,8.49545,7.4955,9.49545,0.999997
0.09,0.105832,1.00002,8.49443,7.49449,9.49444,0.999995
0.1,0.112439,1.00002,8.49334,7.49341,9.49336,0.999991
0.11,0.11849,1.00001,8.49218,7.49227,9.49222,0.999986
0.12,0.124063,1.00002,8.49097,7.49107,9.49102,0.999996
0.13,0.128931,1.00003,8.48971,7.48981,9.48977,1.00001
0.14,0.133806,1.00005,8.4884,7.48851,9.48847,1.00003
0.15,0.138317,1.00006,8.48704,7.48716,9.48713,1.00004
0.16,0.142494,1.00006,8.48563,7.48577,9.48574,1.00005
0.17,0.146358,1.00007,8.48419,7.48434,9.48431,1.00006
0.18,0.149956,1.00008,8.48271,7.48287,9.48284,1.00006
0.19,0.15332,1.00008,8.4812,7.48136,9.48132,1.00006
0.2,0.156468,1.00009,8.47965,7.47982,9.47976,1.00006
0.21,0.159411,1.00009,8.47807,7.47825,9.47817,1.00005
0.22,0.162189,1.00011,8.47646,7.47665,9.47654,1.00005
0.23,0.164811,1.00015,8.47483,7.47503,9.47488,1.00008
0.24,0.167312,1.00018,8.47317,7.47338,9.4732,1.00009
0.25,0.169698,1.00022,8.47149,7.47172,9.47149,1.00011
0.26,0.171961,1.00025,8.46978,7.47003,9.46976,1.00011
0.27,0.174077,1.00028,8.46805,7.46832,9.468,1.00012
0.28,0.176122,1.00031,8.4663,7.46659,9.46622,1.00012
0.29,0.178072,1.00034,8.46453,7.46484,9.46442,1.00012
0.3,0.179923,1.00036,8.46274,7.46307,9.46259,1.00012
0.31,0.181688,1.00039,8.46093,7.46128,9.46075,1.00013
0.32,0.183387,1.00044,8.45911,7.45948,9.4589,1.00015
0.33,0.185041,1.00048,8.45727,7.45765,9.45702,1.00016
0.34,0.186645,1.00051,8.45541,7.45582,9.45514,1.00017
0.35,0.188186,1.00054,8.45354,7.45397,9.45324,1.00018
0.36,0.189626,1.00057,8.45165,7.4521,9.45132,1.00018
0.37,0.191033,1.0006,8.44975,7.45021,9.44939,1.00018
0.38,0.192398,1.00062,8.44783,7.44831,9.44744,1.00018
0.39,0.193679,1.00063,8.4459,7.44639,9.44548,1.00018
0.4,0.194922,1.00066,8.44396,7.44445,9.44352,1.0002
0.41,0.196139,1.00069,8.44201,7.4425,9.44154,1.00021
0.42,0.197327,1.00072,8.44004,7.44054,9.43955,1.00022
0.43,0.198486,1.00074,8.43806,7.43857,9.43756,1.00023
0.44,0.199592,1.00077,8.43607,7.43659,9.43553,1.00024
0.45,0.200645,1.00079,8.43407,7.4346,9.43351,1.00024
0.46,0.201663,1.0008,8.43206,7.4326,9.43148,1.00024
0.47,0.202652,1.00081,8.43004,7.43059,9.42945,1.00024
0.48,0.203623,1.00083,8.42801,7.42857,9.42741,1.00025
0.49,0.20461,1.00085,8.42597,7.42654,9.42537,1.00027
0.5,0.205584,1.00087,8.42392,7.4245,9.42332,1.00028
0.51,0.2065,1.00089,8.42186,7.42246,9.42127,1.00029
0.52,0.207381,1.0009,8.41979,7.4204,9.41919,1.0003
0.53,0.208227,1.00092,8.41772,7.41833,9.4171,1.0003
0.54,0.209041,1.00092,8.41563,7.41625,9.41501,1.0003
0.55,0.209832,1.00093,8.41354,7.41416,9.4129,1.00029
0.56,0.210612,1.00096,8.41143,7.41207,9.41078,1.00031
0.57,0.211415,1.00098,8.40933,7.40997,9.40866,1.00033
0.58,0.212204,1.001,8.40721,7.40787,9.40654,1.00034
0.59,0.212921,1.00102,8.40508,7.40576,9.4044,1.00034
0.6,0.213628,1.00104,8.40295,7.40364,9.40226,1.00034
0.61,0.214319,1.00105,8.40081,7.40152,9.4001,1.00034
0.62,0.21498,1.00105,8.39867,7.39939,9.39795,1.00033
0.63,0.215651,1.00108,8.39652,7.39726,9.39579,1.00034
0.64,0.216333,1.00111,8.39436,7.39512,9.39362,1.00036
0.65,0.217021,1.00113,8.39219,7.39298,9.39145,1.00036
0.66,0.21766,1.00115,8.39002,7.39084,9.38928,1.00037
0.67,0.218284,1.00117,8.38784,7.38869,9.38709,1.00037
0.68,0.21889,1.00118,8.38565,7.38652,9.38489,1.00036
0.69,0.219468,1.00118,8.38346,7.38435,9.38269,1.00035
0.7,0.219998,1.0012,8.38127,7.38216,9.38048,1.00036
0.71,0.220561,1.00122,8.37906,7.37996,9.37828,1.00037
0.72,0.221122,1.00122,8.37686,7.37775,9.37607,1.00038
0.73,0.221688,1.00123,8.37464,7.37554,9.37385,1.00039
0.74,0.222202,1.00125,8.37243,7.37334,9.37162,1.00039
0.75,0.222708,1.00124,8.3702,7.37112,9.3694,1.00038
0.76,0.223192,1.00123,8.36797,7.3689,9.36718,1.00037
0.77,0.223698,1.00123,8.36574,7.36667,9.36497,1.00038
0.78,0.224273,1.00123,8.3635,7.36443,9.36276,1.00039
0.79,0.224864,1.00123,8.36126,7.36219,9.36054,1.0004
0.8,0.225382,1.00122,8.359,7.35994,9.35832,1.00041
0.81,0.225915,1.00122,8.35675,7.35768,9.35607,1.00041
0.82,0.226401,1.00121,8.35449,7.35541,9.35381,1.0004
0.83,0.226891,1.00119,8.35222,7.35313,9.35154,1.00039
0.84,0.22736,1.0012,8.34995,7.35085,9.34926,1.0004
0.85,0.227869,1.00122,8.34768,7.34857,9.34697,1.00041
0.86,0.228368,1.00123,8.3454,7.34629,9.34468,1.00042
0.87,0.228838,1.00124,8.34311,7.34401,9.34238,1.00043
0.88,0.229299,1.00125,8.34082,7.34172,9.34007,1.00042
0.89,0.229769,1.00125,8.33853,7.33942,9.33776,1.00042
0.9,0.230192,1.00125,8.33623,7.33713,9.33544,1.0004
0.91,0.23065,1.00126,8.33392,7.33482,9.33312,1.00041
0.92,0.231117,1.00128,8.33162,7.33252,9.3308,1.00042
0.93,0.231601,1.0013,8.3293,7.33021,9.32847,1.00043
0.94,0.232045,1.00131,8.32699,7.3279,9.32614,1.00043
0.95,0.232483,1.00131,8.32466,7.32558,9.3238,1.00042
0.96,0.232897,1.00131,8.32234,7.32326,9.32146,1.00041
0.97,0.2333,1.0013,8.32001,7.32092,9.31912,1.0004
0.98,0.233698,1.00131,8.31767,7.31858,9.31677,1.00041
0.99,0.234129,1.00132,8.31534,7.31623,9.31443,1.00042
1,0.234544,1.00132,8.31299,7.31388,9.31208,1.00042
1.01,0.234947,1.00133,8.31065,7.31153,9.30971,1.00042
1.02,0.235312,1.00133,8.3083,7.30918,9.30735,1.00042
1.03,0.235669,1.00132,8.30594,7.30682,9.305,1.00041
1.04,0.236031,1.00131,8.30358,7.30446,9.30264,1.0004
1.05,0.236415,1.00132,8.30122,7.3021,9.30029,1.00042
1.06,0.236833,1.00132,8.29886,7.29973,9.29794,1.00043
1.07,0.237206,1.00132,8.29649,7.29737,9.29559,1.00043
1.08,0.237562,1.00132,8.29411,7.295,9.29322,1.00043
1.09,0.237899,1.00132,8.29174,7.29262,9.29084,1.00043
1.1,0.238218,1.00131,8.28936,7.29024,9.28846,1.00041
1.11,0.238537,1.00132,8.28697,7.28785,9.28607,1.00042
1.12,0.238896,1.00133,8.28459,7.28547,9.28368,1.00044
1.13,0.239254,1.00134,8.2822,7.28308,9.28129,1.00045
1.14,0.239548,1.00135,8.27981,7.2807,9.2789,1.00045
1.15,0.239822,1.00135,8.27741,7.27831,9.27649,1.00044
1.16,0.240115,1.00135,8.27501,7.27592,9.27409,1.00043
1.17,0.240396,1.00135,8.27261,7.27353,9.27168,1.00043
1.18,0.240704,1.00138,8.2702,7.27114,9.26927,1.00044
1.19,0.241032,1.0014,8.2678,7.26876,9.26687,1.00045
1.2,0.241343,1.00142,8.26538,7.26638,9.26446,1.00046
1.21,0.241619,1.00144,8.26297,7.264,9.26204,1.00045
1.22,0.2419,1.00144,8.26055,7.2616,9.25961,1.00045
1.23,0.242145,1.00144,8.25813,7.2592,9.25718,1.00043
1.24,0.242379,1.00146,8.25571,7.25679,9.25476,1.00044
1.25,0.242633,1.00147,8.25329,7.25437,9.25233,1.00046
1.26,0.242913,1.00148,8.25086,7.25194,9.24992,1.00046
1.27,0.243149,1.00149,8.24843,7.24951,9.24746,1.00046
1.28,0.24338,1.0015,8.246,7.24711,9.24502,1.00046
1.29,0.243599,1.00149,8.24357,7.24469,9.24261,1.00045
1.3,0.243835,1.00148,8.24113,7.24226,9.2402,1.00045
1.31,0.244131,1.00147,8.23869,7.23982,9.2378,1.00047
1.32,0.244459,1.00146,8.23625,7.23737,9.23541,1.00048
1.33,0.244743,1.00145,8.2338,7.23492,9.233,1.00048
1.34,0.245037,1.00144,8.23135,7.23247,9.23056,1.00048
1.35,0.245292,1.00142,8.2289,7.23001,9.22811,1.00048
1.36,0.24556,1.00141,8.22645,7.22754,9.22566,1.00046
1.37,0.245814,1.00142,8.22399,7.22507,9.22319,1.00048
1.38,0.24613,1.00144,8.22153,7.22261,9.22072,1.00049
1.39,0.246397,1.00145,8.21907,7.22014,9.21825,1.0005
1.4,0.246665,1.00146,8.21661,7.21768,9.21576,1.0005
1.41,0.246942,1.00147,8.21414,7.21521,9.21327,1.00049
1.42,0.247204,1.00147,8.21167,7.21274,9.21077,1.00048
1.43,0.247473,1.00148,8.2092,7.21027,9.20828,1.00049
1.44,0.247773,1.00151,8.20672,7.2078,9.20578,1.0005
1.45,0.24808,1.00153,8.20424,7.20533,9.20329,1.00051
1.46,0.248363,1.00154,8.20176,7.20285,9.20079,1.00051
1.47,0.248634,1.00155,8.19928,7.20037,9.19828,1.0005
1.48,0.248879,1.00155,8.19679,7.19788,9.19577,1.00049
1.49,0.249117,1.00155,8.1943,7.19539,9.19327,1.00049
1.5,0.249371,1.00157,8.19181,7.19289,9.19076,1.0005
1.51,0.249642,1.00158,8.18932,7.19039,9.18826,1.00051
1.52,0.249904,1.00159,8.18682,7.18788,9.18574,1.00051
1.53,0.250142,1.0016,8.18432,7.18539,9.18322,1.00051
1.54,0.250347,1.00159,8.18182,7.18288,9.18071,1.0005
1.55,0.250567,1.00158,8.17931,7.18038,9.1782,1.00049
1.56,0.250793,1.0016,8.17681,7.17787,9.1757,1.00051
1.57,0.251066,1.0016,8.1743,7.17536,9.17321,1.00052
1.58,0.251306,1.00161,8.17179,7.17286,9.17071,1.00053
1.59,0.251537,1.00161,8.16928,7.17035,9.16819,1.00053
1.6,0.251735,1.00161,8.16676,7.16783,9.16568,1.00052
1.61,0.251925,1.0016,8.16424,7.16531,9.16315,1.00051
1.62,0.252116,1.00161,8.16172,7.16279,9.16063,1.00053
1.63,0.252349,1.00163,8.1592,7.16027,9.1581,1.00054
1.64,0.252567,1.00164,8.15668,7.15776,9.15558,1.00055
1.65,0.252753,1.00165,8.15415,7.15524,9.15304,1.00055
1.66,0.252943,1.00165,8.15162,7.15272,9.15051,1.00054
1.67,0.253111,1.00165,8.14909,7.1502,9.14797,1.00053
1.68,0.253297,1.00166,8.14656,7.14768,9.14543,1.00054
1.69,0.253515,1.00168,8.14403,7.14517,9.1429,1.00055
1.7,0.253729,1.0017,8.14149,7.14266,9.14037,1.00056
1.71,0.253926,1.00172,8.13896,7.14015,9.13783,1.00056
1.72,0.254101,1.00172,8.13642,7.13763,9.13528,1.00055
1.73,0.254245,1.00172,8.13388,7.1351,9.13273,1.00054
1.74,0.254363,1.00173,8.13133,7.13256,9.13019,1.00054
1.75,0.254514,1.00174,8.12879,7.13002,9.12765,1.00055
1.76,0.254679,1.00174,8.12624,7.12747,9.12511,1.00056
1.77,0.25485,1.00175,8.1237,7.12492,9.12255,1.00056
1.78,0.254984,1.00175,8.12115,7.12239,9.12,1.00055
1.79,0.255111,1.00173,8.1186,7.11985,9.11747,1.00054
1.8,0.255245,1.00172,8.11605,7.1173,9.11494,1.00054
1.81,0.255453,1.00172,8.1135,7.11475,9.11242,1.00055
1.82,0.255676,1.00171,8.11094,7.11219,9.1099,1.00056
1.83,0.255885,1.0017,8.10838,7.10963,9.10737,1.00056
1.84,0.25606,1.00169,8.10582,7.10707,9.10482,1.00056
1.85,0.25624,1.00167,8.10326,7.1045,9.10226,1.00055
1.86,0.25639,1.00166,8.1007,7.10192,9.0997,1.00054
1.87,0.25659,1.00167,8.09814,7.09935,9.09712,1.00056
1.88,0.256798,1.00168,8.09557,7.09678,9.09455,1.00057
1.89,0.256976,1.00169,8.093,7.09421,9.09197,1.00057
1.9,0.257162,1.0017,8.09043,7.09164,9.08939,1.00057
1.91,0.257341,1.00169,8.08786,7.08907,9.08679,1.00056
1.92,0.257501,1.00169,8.08529,7.08649,9.0842,1.00054
1.93,0.257697,1.00171,8.08271,7.08392,9.08161,1.00056
1.94,0.257922,1.00173,8.08014,7.08134,9.07903,1.00057
1.95,0.258129,1.00174,8.07756,7.07877,9.07644,1.00057
1.96,0.258321,1.00174,8.07497,7.07619,9.07384,1.00056
1.97,0.258492,1.00174,8.07239,7.07361,9.07124,1.00055
1.98,0.258653,1.00173,8.06981,7.07101,9.06864,1.00054
1.99,0.258833,1.00174,8.06722,7.06842,9.06605,1.00055
2,0.259028,1.00175,8.06463,7.06582,9.06346,1.00056
2.01,0.259221,1.00175,8.06204,7.06322,9.06085,1.00056
2.02,0.259386,1.00175,8.05945,7.06062,9.05824,1.00056
2.03,0.259531,1.00174,8.05685,7.05802,9.05564,1.00055
2.04,0.259683,1.00173,8.05426,7.05543,9.05305,1.00054
2.05,0.259849,1.00174,8.05166,7.05282,9.05046,1.00055
2.06,0.260058,1.00174,8.04906,7.05022,9.04788,1.00057
2.07,0.260228,1.00174,8.04646,7.04763,9.0453,1.00057
2.08,0.260395,1.00173,8.04386,7.04503,9.0427,1.00057
2.09,0.260531,1.00172,8.04126,7.04242,9.04009,1.00056
2.1,0.260658,1.00171,8.03865,7.03981,9.03748,1.00055
2.11,0.260796,1.00173,8.03604,7.0372,9.03488,1.00056
2.12,0.260728,1.00174,8.03344,7.03459,9.03227,1.00058
2.13,0.260905,1.00175,8.03083,7.03199,9.02966,1.00058
2.14,0.261072,1.00176,8.02822,7.02939,9.02704,1.00058
2.15,0.261199,1.00175,8.02561,7.02679,9.02442,1.00057
2.16,0.261319,1.00175,8.023,7.02419,9.02181,1.00056
2.17,0.261455,1.00177,8.02038,7.02159,9.01919,1.00057
2.18,0.261627,1.0018,8.01777,7.019,9.01658,1.00058
2.19,0.261767,1.00181,8.01515,7.01642,9.01397,1.00059
2.2,0.261889,1.00183,8.01254,7.01383,9.01134,1.00058
2.21,0.261997,1.00183,8.00992,7.01124,9.00872,1.00057
2.22,0.262078,1.00183,8.0073,7.00863,9.00609,1.00056
2.23,0.26215,1.00186,8.00468,7.00602,9.00347,1.00058
2.24,0.262263,1.00186,8.00206,7.0034,9.00086,1.00059
2.25,0.262436,1.00188,7.99943,7.00078,8.99822,1.00059
2.26,0.262421,1.00189,7.99681,6.99818,8.99558,1.00059
2.27,0.262495,1.00189,7.99419,6.99558,8.99297,1.00058
2.28,0.262579,1.00187,7.99156,6.99296,8.99037,1.00057
2.29,0.262717,1.00187,7.98894,6.99034,8.98779,1.00059
2.3,0.262896,1.00186,7.98631,6.98772,8.98521,1.0006
2.31,0.263057,1.00184,7.98368,6.98509,8.98262,1.00061
2.32,0.263196,1.00183,7.98105,6.98245,8.98001,1.00061
2.33,0.263334,1.00181,7.97842,6.9798,8.97738,1.0006
2.34,0.263447,1.0018,7.97578,6.97716,8.97475,1.00059
2.35,0.263606,1.00181,7.97315,6.97451,8.9721,1.00061
2.36,0.263776,1.00182,7.97051,6.97187,8.96946,1.00062
2.37,0.263926,1.00183,7.96787,6.96923,8.96681,1.00062
2.38,0.264062,1.00184,7.96524,6.96658,8.96415,1.00062
2.39,0.264197,1.00183,7.96259,6.96394,8.96149,1.0006
2.4,0.264314,1.00183,7.95995,6.96129,8.95882,1.0006
2.41,0.264491,1.00186,7.95731,6.95865,8.95616,1.00061
2.42,0.26468,1.00187,7.95466,6.956,8.9535,1.00062
2.43,0.264861,1.00188,7.95202,6.95336,8.95084,1.00062
2.44,0.265017,1.00189,7.94937,6.95071,8.94817,1.00061
2.45,0.265156,1.00188,7.94672,6.94806,8.9455,1.0006
2.46,0.265288,1.00188,7.94407,6.94539,8.94283,1.0006
2.47,0.265443,1.0019,7.94141,6.94273,8.94016,1.00061
2.48,0.2656,1.00191,7.93876,6.94007,8.9375,1.00062
2.49,0.265766,1.00191,7.9361,6.9374,8.93482,1.00062
2.5,0.265886,1.00192,7.93345,6.93474,8.93214,1.00062
2.51,0.265995,1.00191,7.93079,6.93208,8.92948,1.0006
2.52,0.266107,1.00191,7.92813,6.92942,8.92682,1.00061
2.53,0.266264,1.00192,7.92547,6.92675,8.92417,1.00062
2.54,0.266417,1.00192,7.9228,6.92409,8.92152,1.00063
2.55,0.266558,1.00192,7.92014,6.92143,8.91886,1.00064
2.56,0.266667,1.00192,7.91747,6.91877,8.91619,1.00063
2.57,0.266763,1.00191,7.91481,6.9161,8.91352,1.00062
2.58,0.266841,1.00192,7.91214,6.91343,8.91085,1.00063
2.59,0.266984,1.00194,7.90947,6.91076,8.90818,1.00064
2.6,0.267102,1.00195,7.9068,6.90809,8.90551,1.00065
2.61,0.267204,1.00196,7.90413,6.90543,8.90283,1.00065
2.62,0.267285,1.00196,7.90146,6.90276,8.90014,1.00065
2.63,0.267362,1.00195,7.89879,6.9001,8.89746,1.00063
2.64,0.267455,1.00197,7.89611,6.89744,8.89479,1.00064
2.65,0.267584,1.00199,7.89344,6.89478,8.89211,1.00065
2.66,0.267703,1.00201,7.89076,6.89213,8.88944,1.00066
2.67,0.267796,1.00202,7.88809,6.88948,8.88676,1.00066
2.68,0.267879,1.00203,7.88541,6.88682,8.88407,1.00065
2.69,0.267926,1.00202,7.88273,6.88416,8.88139,1.00063
2.7,0.267982,1.00204,7.88005,6.88148,8.8787,1.00065
2.71,0.268068,1.00205,7.87737,6.8788,8.87603,1.00066
2.72,0.268155,1.00205,7.87469,6.87612,8.87335,1.00066
2.73,0.268229,1.00206,7.87201,6.87345,8.87065,1.00066
2.74,0.268272,1.00205,7.86933,6.87077,8.86798,1.00065
2.75,0.268324,1.00203,7.86665,6.8681,8.86532,1.00064
2.76,0.268427,1.00203,7.86396,6.86542,8.86267,1.00066
2.77,0.268584,1.00202,7.86128,6.86273,8.86002,1.00067
2.78,0.268725,1.00201,7.85859,6.86005,8.85736,1.00067
2.79,0.268841,1.002,7.85591,6.85735,8.85468,1.00067
2.8,0.268951,1.00199,7.85322,6.85465,8.852,1.00066
2.81,0.269034,1.00198,7.85053,6.85195,8.8493,1.00065
2.82,0.26917,1.00199,7.84784,6.84925,8.84661,1.00067
2.83,0.269302,1.002,7.84515,6.84656,8.84391,1.00068
2.84,0.269411,1.00201,7.84246,6.84386,8.84121,1.00068
2.85,0.269532,1.00201,7.83976,6.84117,8.83849,1.00067
2.86,0.269637,1.002,7.83707,6.83847,8.83578,1.00066
2.87,0.269725,1.00201,7.83437,6.83577,8.83307,1.00066
2.88,0.269879,1.00203,7.83167,6.83307,8.83036,1.00067
2.89,0.270017,1.00204,7.82897,6.83038,8.82765,1.00067
2.9,0.270157,1.00205,7.82627,6.82768,8.82494,1.00067
2.91,0.270272,1.00205,7.82357,6.82498,8.82222,1.00066
2.92,0.270364,1.00203,7.82087,6.82227,8.81951,1.00065
2.93,0.270467,1.00204,7.81817,6.81956,8.81679,1.00065
2.94,0.270596,1.00205,7.81546,6.81684,8.81408,1.00066
2.95,0.27072,1.00205,7.81276,6.81413,8.81137,1.00067
2.96,0.270839,1.00205,7.81005,6.81141,8.80864,1.00066
2.97,0.270914,1.00204,7.80734,6.8087,8.80593,1.00065
2.98,0.270996,1.00202,7.80463,6.80599,8.80322,1.00064
2.99,0.271086,1.00203,7.80192,6.80328,8.80052,1.00065
3,0.27123,1.00203,7.79921,6.80056,8.79783,1.00066
3.01,0.271339,1.00203,7.7965,6.79785,8.79513,1.00067
3.02,0.271444,1.00203,7.79379,6.79514,8.79242,1.00067
3.03,0.271512,1.00201,7.79107,6.79242,8.78971,1.00066
3.04,0.27158,1.002,7.78836,6.7897,8.78699,1.00065
3.05,0.27164,1.00202,7.78564,6.78698,8.78428,1.00066
3.06,0.27177,1.00203,7.78293,6.78427,8.78156,1.00067
3.07,0.271826,1.00203,7.78021,6.78156,8.77884,1.00068
3.08,0.271902,1.00204,7.77749,6.77884,8.77612,1.00067
3.09,0.271943,1.00203,7.77477,6.77613,8.77339,1.00066
3.1,0.272006,1.00204,7.77205,6.77342,8.77067,1.00066
3.11,0.272083,1.00206,7.76933,6.77072,8.76795,1.00067
3.12,0.272185,1.00208,7.76661,6.76802,8.76524,1.00068
3.13,0.272252,1.00209,7.76389,6.76534,8.76251,1.00068
3.14,0.272303,1.0021,7.76117,6.76264,8.75978,1.00067
3.15,0.272335,1.0021,7.75845,6.75993,8.75706,1.00066
3.16,0.272352,1.00211,7.75572,6.75722,8.75433,1.00066
3.17,0.272398,1.00213,7.753,6.7545,8.75161,1.00068
3.18,0.27246,1.00213,7.75028,6.75178,8.74888,1.00068
3.19,0.272488,1.00214,7.74755,6.74906,8.74614,1.00068
3.2,0.272508,1.00214,7.74483,6.74636,8.74343,1.00067
3.21,0.272532,1.00212,7.74211,6.74365,8.74073,1.00066
3.22,0.272599,1.00212,7.73938,6.74092,8.73805,1.00068
3.23,0.272724,1.0021,7.73665,6.7382,8.73537,1.00069
3.24,0.272823,1.00209,7.73393,6.73547,8.73268,1.00069
3.25,0.272933,1.00208,7.7312,6.73273,8.72997,1.00069
3.26,0.273001,1.00206,7.72847,6.72999,8.72724,1.00068
3.27,0.273078,1.00204,7.72574,6.72725,8.72451,1.00067
3.28,0.273169,1.00206,7.72301,6.7245,8.72177,1.00069
3.29,0.273304,1.00207,7.72028,6.72177,8.71903,1.0007
3.3,0.273372,1.00208,7.71755,6.71903,8.71629,1.0007
3.31,0.273487,1.00208,7.71481,6.7163,8.71353,1.0007
3.32,0.273572,1.00208,7.71208,6.71356,8.71077,1.00068
3.33,0.273664,1.00209,7.70934,6.71082,8.70801,1.00069
3.34,0.27379,1.00211,7.70661,6.70808,8.70526,1.0007
3.35,0.273931,1.00213,7.70387,6.70535,8.70251,1.00071
3.36,0.274046,1.00214,7.70113,6.70262,8.69975,1.0007
3.37,0.274143,1.00214,7.69839,6.69988,8.69699,1.0007
3.38,0.274219,1.00213,7.69565,6.69713,8.69423,1.00068
3.39,0.274311,1.00215,7.69291,6.69438,8.69147,1.00069
3.4,0.274421,1.00216,7.69016,6.69163,8.68872,1.0007
3.41,0.274532,1.00217,7.68742,6.68887,8.68596,1.00071
3.42,0.274626,1.00218,7.68467,6.68613,8.68319,1.00071
3.43,0.274686,1.00217,7.68193,6.68338,8.68044,1.0007
3.44,0.274747,1.00216,7.67918,6.68063,8.67769,1.00068
3.45,0.274832,1.00217,7.67643,6.67788,8.67495,1.0007
3.46,0.274944,1.00217,7.67369,6.67513,8.67222,1.00071
3.47,0.275039,1.00218,7.67094,6.67239,8.66948,1.00072
3.48,0.27511,1.00217,7.66819,6.66964,8.66673,1.00072
3.49,0.275167,1.00216,7.66544,6.66689,8.66397,1.00071
3.5,0.275208,1.00216,7.66269,6.66413,8.66122,1.00071
3.51,0.27529,1.00218,7.65993,6.66138,8.65846,1.00072
3.52,0.275371,1.00219,7.65718,6.65863,8.65571,1.00073
3.53,0.275428,1.0022,7.65443,6.65589,8.65295,1.00073
3.54,0.275473,1.0022,7.65167,6.65314,8.65019,1.00073
3.55,0.275519,1.0022,7.64892,6.65039,8.64743,1.00071
3.56,0.275559,1.00221,7.64617,6.64765,8.64467,1.00072
3.57,0.275656,1.00224,7.64341,6.64491,8.64192,1.00073
3.58,0.275726,1.00225,7.64065,6.64218,8.63916,1.00074
3.59,0.275791,1.00226,7.6379,6.63945,8.6364,1.00074
3.6,0.275821,1.00227,7.63514,6.63671,8.63363,1.00073
3.61,0.275811,1.00226,7.63238,6.63396,8.63087,1.00071
3.62,0.275806,1.00228,7.62963,6.63121,8.62812,1.00073
3.63,0.275857,1.00228,7.62687,6.62845,8.62537,1.00074
3.64,0.275894,1.00228,7.62411,6.62568,8.6226,1.00074
3.65,0.275916,1.00229,7.62135,6.62294,8.61984,1.00073
3.66,0.275914,1.00227,7.61859,6.62019,8.6171,1.00072
3.67,0.275929,1.00226,7.61583,6.61744,8.61436,1.00072
3.68,0.276013,1.00225,7.61308,6.61467,8.61164,1.00073
3.69,0.276104,1.00224,7.61032,6.61191,8.60892,1.00074
3.7,0.276199,1.00223,7.60755,6.60915,8.60618,1.00074
3.71,0.276256,1.00221,7.60479,6.60638,8.60342,1.00073
3.72,0.276314,1.00219,7.60203,6.60361,8.60066,1.00072
3.73,0.276357,1.0022,7.59927,6.60083,8.5979,1.00073
3.74,0.276467,1.00221,7.5965,6.59806,8.59513,1.00074
