time,velocity,ratio,centerX,Xmax,Xmin,Ymax
0,0,1,4.75,3.75,5.75,1
0.01,0.0187839,1.00001,4.7499,3.74991,5.7499,1
0.02,0.0353136,1.00003,4.74963,3.74965,5.74961,1.00001
0.03,0.0499223,1.00007,4.74921,3.74925,5.74915,1.00002
0.04,0.0628606,1.00011,4.74864,3.74871,5.74855,1.00003
0.05,0.0744484,1.00016,4.74796,3.74805,5.74783,1.00005
0.06,0.0848386,1.00019,4.74716,3.74727,5.747,1.00006
0.07,0.0941955,1.00023,4.74627,3.7464,5.74608,1.00006
0.08,0.102678,1.00025,4.74528,3.74544,5.74507,1.00007
0.09,0.1104,1.00026,4.74422,3.74439,5.74399,1.00006
0.1,0.11747,1.00026,4.74308,3.74326,5.74284,1.00006
0.11,0.124079,1.00027,4.74187,3.74206,5.74164,1.00006
0.12,0.130199,1.00027,4.7406,3.74078,5.74038,1.00006
0.13,0.135943,1.00025,4.73927,3.73943,5.73908,1.00007
0.14,0.141401,1.00024,4.73788,3.73803,5.73772,1.00008
0.15,0.146532,1.00024,4.73645,3.73659,5.73629,1.00009
0.16,0.151364,1.00025,4.73496,3.73511,5.73479,1.00009
0.17,0.155658,1.00027,4.73342,3.73359,5.73323,1.00009
0.18,0.159517,1.00028,4.73185,3.73202,5.73163,1.00009
0.19,0.163061,1.00028,4.73023,3.73041,5.73001,1.00008
0.2,0.166341,1.00028,4.72859,3.72877,5.72835,1.00007
0.21,0.169419,1.00028,4.72691,3.72709,5.72666,1.00006
0.22,0.172429,1.0003,4.7252,3.72539,5.72495,1.00008
0.23,0.175337,1.0003,4.72346,3.72365,5.72323,1.00009
0.24,0.17828,1.00029,4.7217,3.72187,5.72148,1.0001
0.25,0.181209,1.0003,4.7199,3.72008,5.7197,1.00011
0.26,0.183819,1.00031,4.71808,3.71828,5.71786,1.00011
0.27,0.186038,1.00033,4.71623,3.71644,5.71598,1.0001
0.28,0.188101,1.00033,4.71436,3.71457,5.71409,1.00009
0.29,0.190018,1.00032,4.71247,3.71268,5.71219,1.00008
0.3,0.191914,1.00033,4.71056,3.71077,5.71028,1.00008
0.31,0.193805,1.00034,4.70863,3.70884,5.70835,1.00009
0.32,0.195809,1.00033,4.70668,3.70688,5.70643,1.0001
0.33,0.197903,1.00032,4.70472,3.70491,5.70449,1.00011
0.34,0.199865,1.00033,4.70273,3.70294,5.7025,1.00011
0.35,0.201337,1.00033,4.70072,3.70094,5.70048,1.0001
0.36,0.202716,1.00033,4.6987,3.69892,5.69843,1.00009
0.37,0.204034,1.00033,4.69667,3.69688,5.69639,1.00008
0.38,0.205385,1.00034,4.69462,3.69484,5.69434,1.00009
0.39,0.206789,1.00034,4.69256,3.69277,5.69229,1.0001
0.4,0.208357,1.00033,4.69049,3.69068,5.69024,1.00011
0.41,0.21004,1.00032,4.6884,3.68859,5.68817,1.00011
0.42,0.211395,1.00033,4.68629,3.6865,5.68606,1.00011
0.43,0.212432,1.00033,4.68417,3.68439,5.68392,1.0001
0.44,0.213409,1.00033,4.68204,3.68225,5.68177,1.00009
0.45,0.214381,1.00033,4.67991,3.68012,5.67963,1.00008
0.46,0.215451,1.00035,4.67776,3.67798,5.67747,1.0001
0.47,0.216699,1.00035,4.6756,3.67581,5.67533,1.00011
0.48,0.218101,1.00034,4.67343,3.67363,5.67319,1.00012
0.49,0.219342,1.00034,4.67124,3.67145,5.67101,1.00012
0.5,0.220154,1.00034,4.66904,3.66926,5.6688,1.00011
0.51,0.220927,1.00033,4.66684,3.66705,5.66657,1.00009
0.52,0.221681,1.00033,4.66462,3.66484,5.66435,1.00008
0.53,0.222545,1.00035,4.6624,3.66262,5.66212,1.0001
0.54,0.223551,1.00035,4.66017,3.66039,5.65991,1.00011
0.55,0.224778,1.00034,4.65793,3.65814,5.65769,1.00012
0.56,0.225889,1.00034,4.65568,3.65589,5.65545,1.00012
0.57,0.226548,1.00034,4.65342,3.65364,5.65318,1.00011
0.58,0.227218,1.00034,4.65115,3.65137,5.65088,1.00009
0.59,0.227914,1.00034,4.64888,3.6491,5.64859,1.00009
0.6,0.22867,1.00037,4.64659,3.64683,5.6463,1.0001
0.61,0.229601,1.00037,4.6443,3.64454,5.64402,1.00011
0.62,0.230726,1.00036,4.642,3.64223,5.64175,1.00012
0.63,0.231619,1.00037,4.63969,3.63994,5.63944,1.00012
0.64,0.232104,1.00037,4.63737,3.63763,5.6371,1.00011
0.65,0.232603,1.00037,4.63505,3.6353,5.63476,1.0001
0.66,0.233025,1.00037,4.63272,3.63298,5.63242,1.0001
0.67,0.233496,1.00038,4.63039,3.63065,5.6301,1.00011
0.68,0.234219,1.00037,4.62805,3.62829,5.6278,1.00012
0.69,0.235146,1.00035,4.62571,3.62593,5.62548,1.00012
0.7,0.235648,1.00034,4.62335,3.62359,5.62313,1.00011
0.71,0.235925,1.00034,4.621,3.62122,5.62075,1.0001
0.72,0.23621,1.00032,4.61864,3.61886,5.61838,1.00008
0.73,0.236606,1.00034,4.61627,3.6165,5.61601,1.00009
0.74,0.237199,1.00035,4.61391,3.61413,5.61365,1.0001
0.75,0.238052,1.00034,4.61153,3.61175,5.6113,1.00011
0.76,0.238921,1.00033,4.60915,3.60936,5.60894,1.00012
0.77,0.239226,1.00033,4.60676,3.60698,5.60654,1.00011
0.78,0.239524,1.00032,4.60436,3.60457,5.60412,1.00009
0.79,0.239841,1.00032,4.60197,3.60218,5.6017,1.00009
0.8,0.240292,1.00035,4.59957,3.5998,5.5993,1.0001
0.81,0.240966,1.00035,4.59716,3.59739,5.5969,1.00011
0.82,0.241856,1.00035,4.59475,3.59497,5.59451,1.00012
0.83,0.242382,1.00035,4.59233,3.59256,5.5921,1.00011
0.84,0.242648,1.00035,4.5899,3.59013,5.58965,1.0001
0.85,0.242905,1.00034,4.58748,3.5877,5.5872,1.00009
0.86,0.243252,1.00036,4.58505,3.58528,5.58476,1.0001
0.87,0.243766,1.00037,4.58261,3.58286,5.58233,1.00011
0.88,0.244549,1.00036,4.58017,3.5804,5.57991,1.00012
0.89,0.245316,1.00036,4.57772,3.57796,5.57748,1.00012
0.9,0.245508,1.00036,4.57527,3.57551,5.57502,1.00011
0.91,0.245728,1.00035,4.57281,3.57305,5.57254,1.0001
0.92,0.245983,1.00035,4.57036,3.57059,5.57008,1.00009
0.93,0.246387,1.00037,4.5679,3.56814,5.56761,1.00011
0.94,0.247041,1.00036,4.56543,3.56566,5.56517,1.00012
0.95,0.24789,1.00035,4.56296,3.56318,5.56272,1.00012
0.96,0.248189,1.00035,4.56048,3.56071,5.56024,1.00011
0.97,0.248342,1.00034,4.55799,3.55822,5.55774,1.0001
0.98,0.248526,1.00034,4.55551,3.55574,5.55524,1.00009
0.99,0.248842,1.00036,4.55302,3.55326,5.55275,1.0001
1,0.249405,1.00037,4.55053,3.55078,5.55027,1.00012
1.01,0.250189,1.00036,4.54804,3.54827,5.54779,1.00012
1.02,0.250635,1.00035,4.54553,3.54577,5.5453,1.00012
1.03,0.250773,1.00035,4.54303,3.54326,5.54277,1.00011
1.04,0.250926,1.00034,4.54052,3.54074,5.54025,1.00009
1.05,0.251182,1.00036,4.53801,3.53824,5.53773,1.0001
1.06,0.251616,1.00037,4.5355,3.53574,5.53522,1.00011
1.07,0.253278,1.00037,4.53297,3.53321,5.53272,1.00012
1.08,0.254403,1.00036,4.53043,3.53068,5.53019,1.00012
1.09,0.254552,1.00037,4.52789,3.52814,5.52763,1.00011
1.1,0.254672,1.00036,4.52535,3.52559,5.52507,1.0001
1.11,0.254851,1.00038,4.5228,3.52305,5.52251,1.00011
1.12,0.25517,1.0004,4.52025,3.52052,5.51996,1.00012
1.13,0.25577,1.00039,4.5177,3.51796,5.51743,1.00013
1.14,0.256159,1.00038,4.51514,3.5154,5.51489,1.00013
1.15,0.256171,1.00038,4.51257,3.51285,5.51232,1.00012
1.16,0.256192,1.00037,4.51001,3.51027,5.50973,1.0001
1.17,0.256263,1.00039,4.50745,3.50772,5.50716,1.00011
1.18,0.256455,1.0004,4.50489,3.50517,5.5046,1.00012
1.19,0.256925,1.00039,4.50232,3.50259,5.50206,1.00013
1.2,0.257905,1.00038,4.49975,3.50001,5.49951,1.00013
1.21,0.257793,1.00038,4.49717,3.49745,5.49693,1.00012
1.22,0.257609,1.00037,4.4946,3.49486,5.49434,1.00011
1.23,0.257513,1.00037,4.49202,3.49228,5.49176,1.0001
1.24,0.25761,1.00038,4.48945,3.48971,5.48919,1.00012
1.25,0.258029,1.00036,4.48687,3.48712,5.48664,1.00012
1.26,0.258571,1.00034,4.48429,3.48453,5.48409,1.00012
1.27,0.2585,1.00033,4.4817,3.48194,5.4815,1.00011
1.28,0.258426,1.00032,4.47912,3.47934,5.47889,1.0001
1.29,0.25843,1.00032,4.47654,3.47675,5.4763,1.00009
1.3,0.258573,1.00034,4.47395,3.47418,5.47371,1.00011
1.31,0.25902,1.00035,4.47136,3.4716,5.47113,1.00011
1.32,0.259638,1.00034,4.46877,3.46901,5.46856,1.00012
1.33,0.25962,1.00034,4.46618,3.46642,5.46596,1.00011
1.34,0.259583,1.00034,4.46358,3.46382,5.46333,1.0001
1.35,0.259604,1.00035,4.46099,3.46123,5.46072,1.0001
1.36,0.259764,1.00038,4.45839,3.45865,5.45812,1.00011
1.37,0.260216,1.00038,4.45579,3.45605,5.45553,1.00012
1.38,0.260836,1.00037,4.45319,3.45344,5.45295,1.00012
1.39,0.260791,1.00037,4.45058,3.45084,5.45034,1.00012
1.4,0.260743,1.00036,4.44797,3.44822,5.44771,1.0001
1.41,0.260736,1.00036,4.44537,3.44561,5.4451,1.0001
1.42,0.260885,1.00037,4.44276,3.44301,5.44249,1.00011
1.43,0.261318,1.00037,4.44015,3.44039,5.4399,1.00012
1.44,0.261933,1.00035,4.43753,3.43777,5.43731,1.00012
1.45,0.261885,1.00034,4.43492,3.43516,5.43469,1.00011
1.46,0.261801,1.00033,4.4323,3.43252,5.43205,1.0001
1.47,0.261791,1.00034,4.42968,3.42991,5.42942,1.0001
1.48,0.261931,1.00036,4.42706,3.42731,5.4268,1.00011
1.49,0.26239,1.00036,4.42444,3.42469,5.4242,1.00012
1.5,0.262971,1.00035,4.42182,3.42206,5.4216,1.00012
1.51,0.262904,1.00035,4.41919,3.41943,5.41897,1.00011
1.52,0.262829,1.00034,4.41656,3.41679,5.41631,1.0001
1.53,0.26283,1.00034,4.41393,3.41416,5.41368,1.0001
1.54,0.262964,1.00036,4.4113,3.41155,5.41104,1.00011
1.55,0.263417,1.00036,4.40867,3.40891,5.40843,1.00012
1.56,0.263977,1.00035,4.40604,3.40628,5.40582,1.00012
1.57,0.263882,1.00035,4.4034,3.40364,5.40317,1.00011
1.58,0.263799,1.00034,4.40076,3.40099,5.40051,1.0001
1.59,0.263785,1.00035,4.39812,3.39836,5.39787,1.0001
1.6,0.263934,1.00037,4.39549,3.39574,5.39523,1.00011
1.61,0.264399,1.00037,4.39284,3.3931,5.3926,1.00012
1.62,0.264881,1.00036,4.3902,3.39045,5.38998,1.00012
1.63,0.264755,1.00036,4.38755,3.38782,5.38732,1.00011
1.64,0.26466,1.00035,4.3849,3.38515,5.38465,1.0001
1.65,0.26464,1.00036,4.38226,3.38251,5.38199,1.0001
1.66,0.264776,1.00038,4.37961,3.37988,5.37935,1.00012
1.67,0.265224,1.00037,4.37696,3.37722,5.37673,1.00012
1.68,0.26563,1.00036,4.37431,3.37457,5.37409,1.00012
1.69,0.265468,1.00035,4.37166,3.37192,5.37143,1.00011
1.7,0.265331,1.00034,4.369,3.36924,5.36876,1.0001
1.71,0.265309,1.00035,4.36635,3.3666,5.3661,1.0001
1.72,0.265545,1.00037,4.3637,3.36396,5.36345,1.00012
1.73,0.266095,1.00036,4.36104,3.36129,5.36082,1.00012
1.74,0.266442,1.00034,4.35838,3.35862,5.35817,1.00012
1.75,0.266348,1.00034,4.35571,3.35595,5.3555,1.00011
1.76,0.266286,1.00032,4.35305,3.35327,5.35281,1.00009
1.77,0.26633,1.00035,4.35039,3.35062,5.35014,1.0001
1.78,0.266581,1.00036,4.34773,3.34797,5.34748,1.00011
1.79,0.267135,1.00035,4.34506,3.3453,5.34483,1.00012
1.8,0.267367,1.00035,4.34239,3.34263,5.34217,1.00012
1.81,0.267278,1.00035,4.33971,3.33996,5.33948,1.00011
1.82,0.267204,1.00034,4.33704,3.33728,5.33679,1.00009
1.83,0.267252,1.00037,4.33437,3.33462,5.33411,1.00011
1.84,0.267557,1.00038,4.3317,3.33196,5.33144,1.00012
1.85,0.268129,1.00037,4.32902,3.32927,5.32878,1.00012
1.86,0.268226,1.00036,4.32634,3.3266,5.32611,1.00012
1.87,0.268109,1.00036,4.32366,3.32391,5.32341,1.00011
1.88,0.268037,1.00035,4.32098,3.32122,5.32071,1.00009
1.89,0.268109,1.00037,4.3183,3.31855,5.31803,1.00011
1.9,0.268452,1.00037,4.31561,3.31587,5.31536,1.00012
1.91,0.269039,1.00036,4.31293,3.31317,5.3127,1.00012
1.92,0.269023,1.00035,4.31024,3.31049,5.31002,1.00011
1.93,0.268882,1.00034,4.30755,3.30779,5.3073,1.0001
1.94,0.268813,1.00034,4.30486,3.3051,5.30461,1.0001
1.95,0.268903,1.00037,4.30217,3.30243,5.30192,1.00011
1.96,0.269317,1.00037,4.29948,3.29974,5.29924,1.00012
1.97,0.269853,1.00036,4.29679,3.29704,5.29657,1.00012
1.98,0.269719,1.00035,4.29409,3.29435,5.29387,1.00011
1.99,0.269593,1.00034,4.2914,3.29163,5.29115,1.0001
2,0.269553,1.00035,4.2887,3.28894,5.28844,1.0001
2.01,0.269671,1.00037,4.28601,3.28626,5.28575,1.00012
2.02,0.27012,1.00037,4.28331,3.28356,5.28307,1.00012
2.03,0.270521,1.00036,4.28061,3.28086,5.28038,1.00012
2.04,0.270375,1.00035,4.2779,3.27816,5.27767,1.00011
2.05,0.27024,1.00034,4.2752,3.27544,5.27495,1.0001
2.06,0.270206,1.00036,4.2725,3.27275,5.27224,1.00011
2.07,0.270384,1.00038,4.2698,3.27006,5.26954,1.00012
2.08,0.270873,1.00038,4.26709,3.26736,5.26685,1.00012
2.09,0.271041,1.00037,4.26438,3.26466,5.26416,1.00012
2.1,0.270857,1.00037,4.26167,3.26195,5.26143,1.00011
2.11,0.270717,1.00036,4.25897,3.25923,5.2587,1.00009
2.12,0.270678,1.00039,4.25626,3.25653,5.25599,1.00011
2.13,0.270883,1.00039,4.25355,3.25383,5.25329,1.00012
2.14,0.271371,1.00038,4.25084,3.25111,5.25061,1.00013
2.15,0.271392,1.00038,4.24813,3.24841,5.2479,1.00012
2.16,0.271179,1.00037,4.24542,3.24569,5.24517,1.00011
2.17,0.271025,1.00036,4.24271,3.24297,5.24245,1.0001
2.18,0.271059,1.00038,4.24,3.24027,5.23974,1.00012
2.19,0.271413,1.00038,4.23728,3.23756,5.23705,1.00012
2.2,0.271972,1.00036,4.23457,3.23483,5.23436,1.00013
2.21,0.271867,1.00035,4.23185,3.23211,5.23164,1.00012
2.22,0.271734,1.00034,4.22913,3.22937,5.2289,1.0001
2.23,0.27168,1.00035,4.22642,3.22666,5.22617,1.0001
2.24,0.271771,1.00037,4.2237,3.22396,5.22344,1.00012
2.25,0.272191,1.00038,4.22098,3.22124,5.22074,1.00012
2.26,0.272617,1.00037,4.21826,3.21852,5.21803,1.00012
2.27,0.272475,1.00037,4.21553,3.2158,5.2153,1.00012
2.28,0.272344,1.00036,4.21281,3.21306,5.21255,1.0001
2.29,0.272317,1.00038,4.21009,3.21035,5.20981,1.00011
2.3,0.272499,1.0004,4.20736,3.20764,5.20709,1.00012
2.31,0.272991,1.00039,4.20464,3.20491,5.20438,1.00013
2.32,0.273219,1.00039,4.20191,3.20218,5.20167,1.00013
2.33,0.273039,1.00038,4.19918,3.19945,5.19892,1.00012
2.34,0.272914,1.00037,4.19645,3.19671,5.19617,1.0001
2.35,0.272911,1.00039,4.19372,3.19399,5.19344,1.00012
2.36,0.273166,1.00039,4.19099,3.19126,5.19072,1.00013
2.37,0.273694,1.00038,4.18826,3.18852,5.18802,1.00013
2.38,0.273717,1.00037,4.18552,3.18579,5.18529,1.00012
2.39,0.273523,1.00036,4.18278,3.18304,5.18253,1.00011
2.4,0.273396,1.00036,4.18005,3.1803,5.17979,1.0001
2.41,0.273431,1.00039,4.17732,3.17758,5.17705,1.00012
2.42,0.273789,1.00039,4.17458,3.17485,5.17433,1.00013
2.43,0.274295,1.00038,4.17184,3.17211,5.17161,1.00013
2.44,0.274123,1.00037,4.1691,3.16937,5.16887,1.00012
2.45,0.273948,1.00036,4.16636,3.16661,5.1661,1.00011
2.46,0.273865,1.00037,4.16362,3.16388,5.16336,1.00011
2.47,0.27394,1.00039,4.16088,3.16115,5.16061,1.00012
2.48,0.274368,1.00039,4.15814,3.15841,5.15789,1.00013
2.49,0.274671,1.00038,4.1554,3.15567,5.15517,1.00013
2.5,0.274476,1.00037,4.15265,3.15292,5.15241,1.00012
2.51,0.274305,1.00036,4.14991,3.15016,5.14965,1.0001
2.52,0.27425,1.00038,4.14717,3.14744,5.1469,1.00011
2.53,0.274444,1.0004,4.14443,3.14471,5.14416,1.00012
2.54,0.274926,1.00039,4.14168,3.14196,5.14143,1.00013
2.55,0.274964,1.00039,4.13893,3.13922,5.1387,1.00012
2.56,0.274747,1.00038,4.13618,3.13647,5.13593,1.00011
2.57,0.274547,1.00038,4.13344,3.13371,5.13316,1.0001
2.58,0.27448,1.0004,4.13069,3.13098,5.13042,1.00012
2.59,0.274707,1.0004,4.12795,3.12824,5.12769,1.00013
2.6,0.275176,1.00038,4.1252,3.12548,5.12497,1.00013
2.61,0.274966,1.00038,4.12245,3.12274,5.12222,1.00012
2.62,0.274704,1.00037,4.1197,3.11997,5.11945,1.00011
2.63,0.274547,1.00037,4.11696,3.11722,5.1167,1.00011
2.64,0.274602,1.00039,4.11421,3.11449,5.11396,1.00012
2.65,0.275004,1.00038,4.11146,3.11174,5.11123,1.00013
2.66,0.27534,1.00037,4.10871,3.10898,5.1085,1.00013
2.67,0.275133,1.00036,4.10596,3.10623,5.10574,1.00012
2.68,0.274954,1.00035,4.10321,3.10346,5.10296,1.0001
2.69,0.274888,1.00037,4.10046,3.10072,5.1002,1.00011
2.7,0.275041,1.00039,4.09771,3.09799,5.09745,1.00012
2.71,0.275504,1.00038,4.09496,3.09523,5.09472,1.00013
2.72,0.275602,1.00038,4.09221,3.09249,5.09198,1.00012
2.73,0.275411,1.00037,4.08945,3.08972,5.0892,1.00011
2.74,0.275236,1.00037,4.0867,3.08696,5.08643,1.0001
2.75,0.275229,1.0004,4.08395,3.08423,5.08367,1.00012
2.76,0.275496,1.00041,4.0812,3.08148,5.08093,1.00013
2.77,0.276015,1.0004,4.07844,3.07872,5.07819,1.00013
2.78,0.275859,1.00039,4.07568,3.07597,5.07544,1.00012
2.79,0.275661,1.00038,4.07292,3.0732,5.07266,1.00011
2.8,0.275536,1.00039,4.07017,3.07044,5.06989,1.00011
2.81,0.275586,1.0004,4.06741,3.0677,5.06714,1.00012
2.82,0.275957,1.0004,4.06466,3.06493,5.0644,1.00013
2.83,0.276325,1.00038,4.0619,3.06217,5.06166,1.00013
2.84,0.276089,1.00038,4.05914,3.05941,5.05889,1.00012
2.85,0.27588,1.00036,4.05638,3.05664,5.05611,1.0001
2.86,0.275792,1.00038,4.05362,3.05389,5.05335,1.00011
2.87,0.275951,1.0004,4.05086,3.05114,5.0506,1.00013
2.88,0.276411,1.00039,4.0481,3.04838,5.04786,1.00013
2.89,0.276508,1.00038,4.04534,3.04562,5.04511,1.00013
2.9,0.276282,1.00037,4.04257,3.04284,5.04232,1.00012
2.91,0.276104,1.00037,4.03981,3.04007,5.03955,1.0001
2.92,0.276069,1.00039,4.03705,3.03732,5.03678,1.00012
2.93,0.276329,1.0004,4.03429,3.03457,5.03403,1.00013
2.94,0.276837,1.00039,4.03153,3.0318,5.03129,1.00013
2.95,0.276656,1.00038,4.02876,3.02904,5.02852,1.00012
2.96,0.276426,1.00037,4.02599,3.02626,5.02574,1.00011
2.97,0.276277,1.00038,4.02323,3.0235,5.02296,1.00011
2.98,0.27629,1.00041,4.02047,3.02076,5.0202,1.00012
2.99,0.276648,1.00041,4.01771,3.018,5.01745,1.00013
3,0.276532,1.0004,4.01494,3.01524,5.0147,1.00013
3.01,0.276253,1.0004,4.01218,3.01248,5.01192,1.00012
3.02,0.276042,1.00039,4.00942,3.00971,5.00914,1.00011
3.03,0.275923,1.00042,4.00666,3.00696,5.00637,1.00012
3.04,0.276023,1.00043,4.0039,3.00421,5.00362,1.00013
3.05,0.276426,1.00041,4.00114,3.00144,5.00089,1.00014
3.06,0.276341,1.00041,3.99837,2.99869,4.99813,1.00013
3.07,0.276052,1.0004,3.99561,2.99592,4.99535,1.00012
3.08,0.27583,1.00039,3.99285,2.99314,4.99259,1.00011
3.09,0.275798,1.00041,3.9901,2.99039,4.98983,1.00013
3.1,0.276092,1.00041,3.98734,2.98764,4.98709,1.00013
3.11,0.276569,1.00038,3.98458,2.98486,4.98435,1.00013
3.12,0.276376,1.00037,3.98181,2.98209,4.98159,1.00012
3.13,0.276166,1.00036,3.97905,2.97931,4.97881,1.00011
3.14,0.276055,1.00036,3.97629,2.97655,4.97604,1.00011
3.15,0.27611,1.00039,3.97353,2.9738,4.97327,1.00012
3.16,0.276495,1.00039,3.97077,2.97104,4.97052,1.00013
3.17,0.276805,1.00038,3.968,2.96828,4.96777,1.00013
3.18,0.276599,1.00038,3.96523,2.96552,4.96499,1.00012
3.19,0.276421,1.00038,3.96247,2.96274,4.9622,1.00011
3.2,0.276361,1.0004,3.95971,2.95999,4.95943,1.00012
3.21,0.276529,1.00042,3.95694,2.95724,4.95666,1.00013
3.22,0.277002,1.00041,3.95418,2.95447,4.95392,1.00014
3.23,0.277041,1.00041,3.95141,2.95171,4.95116,1.00013
3.24,0.276814,1.0004,3.94864,2.94893,4.94837,1.00012
3.25,0.276646,1.00039,3.94587,2.94615,4.94559,1.00011
3.26,0.276633,1.00041,3.94311,2.9434,4.94282,1.00013
3.27,0.276911,1.00041,3.94034,2.94063,4.94007,1.00013
3.28,0.277391,1.00039,3.93757,2.93785,4.93733,1.00013
3.29,0.277181,1.00039,3.9348,2.93508,4.93455,1.00012
3.3,0.276939,1.00038,3.93203,2.9323,4.93176,1.00011
3.31,0.276804,1.00039,3.92926,2.92953,4.92899,1.00011
3.32,0.276854,1.00041,3.92649,2.92678,4.92622,1.00013
3.33,0.277249,1.0004,3.92372,2.92401,4.92347,1.00013
3.34,0.277483,1.00039,3.92095,2.92123,4.92071,1.00013
3.35,0.277228,1.00039,3.91818,2.91846,4.91793,1.00012
3.36,0.277012,1.00037,3.91541,2.91567,4.91514,1.00011
3.37,0.276919,1.0004,3.91264,2.91291,4.91236,1.00012
3.38,0.277074,1.00041,3.90987,2.91015,4.9096,1.00013
3.39,0.277529,1.0004,3.9071,2.90738,4.90685,1.00013
3.4,0.277478,1.00039,3.90432,2.90461,4.90408,1.00013
3.41,0.277226,1.00038,3.90155,2.90182,4.90129,1.00012
3.42,0.277034,1.00038,3.89878,2.89905,4.89851,1.00011
3.43,0.277001,1.00041,3.89601,2.8963,4.89573,1.00013
3.44,0.277279,1.00041,3.89324,2.89354,4.89297,1.00013
3.45,0.277691,1.0004,3.89046,2.89076,4.89022,1.00013
3.46,0.277393,1.0004,3.88769,2.888,4.88744,1.00012
3.47,0.277143,1.00039,3.88492,2.88521,4.88464,1.00011
3.48,0.276989,1.00041,3.88215,2.88244,4.88186,1.00012
3.49,0.277001,1.00042,3.87938,2.87968,4.8791,1.00013
3.5,0.277348,1.00041,3.87661,2.87691,4.87635,1.00014
3.51,0.277484,1.0004,3.87383,2.87414,4.87359,1.00013
3.52,0.277178,1.0004,3.87106,2.87136,4.87081,1.00012
3.53,0.276916,1.00038,3.86829,2.86858,4.86802,1.00011
3.54,0.276815,1.00041,3.86552,2.86582,4.86525,1.00012
3.55,0.277055,1.00041,3.86275,2.86306,4.8625,1.00013
3.56,0.277532,1.0004,3.85998,2.86027,4.85975,1.00013
3.57,0.277437,1.00039,3.85721,2.8575,4.85698,1.00013
3.58,0.277205,1.00038,3.85444,2.85471,4.85418,1.00012
3.59,0.277049,1.00038,3.85167,2.85193,4.8514,1.00011
3.6,0.277047,1.0004,3.8489,2.84918,4.84862,1.00013
3.61,0.277361,1.0004,3.84612,2.84641,4.84587,1.00013
3.62,0.277732,1.00039,3.84335,2.84364,4.84311,1.00013
3.63,0.277488,1.00039,3.84057,2.84087,4.84033,1.00012
3.64,0.277259,1.00038,3.8378,2.83808,4.83753,1.00011
3.65,0.277138,1.0004,3.83503,2.83532,4.83475,1.00012
3.66,0.277235,1.00042,3.83226,2.83256,4.83198,1.00013
3.67,0.277653,1.00042,3.82949,2.82978,4.82922,1.00014
3.68,0.277741,1.00041,3.82671,2.82701,4.82646,1.00013
3.69,0.277477,1.00041,3.82393,2.82423,4.82366,1.00012
3.7,0.277274,1.00039,3.82116,2.82145,4.82088,1.00011
3.71,0.277212,1.00042,3.81839,2.81868,4.8181,1.00013
3.72,0.277432,1.00042,3.81562,2.81591,4.81534,1.00014
3.73,0.277902,1.0004,3.81284,2.81313,4.81259,1.00014
3.74,0.277725,1.0004,3.81006,2.81036,4.80982,1.00013
