time,velocity,ratio,centerX,Xmax,Xmin,Ymax
0,0,1,1.25,0.25,2.25,1
0.01,0.0153088,1.00003,1.24992,0.249964,2.24991,1
0.02,0.0281223,1.00014,1.2497,0.249851,2.24964,1.00003
0.03,0.038877,1.00027,1.24937,0.24964,2.24925,1.00007
0.04,0.0478355,1.00041,1.24893,0.249326,2.24874,1.00011
0.05,0.055346,1.00054,1.24842,0.248916,2.24815,1.00016
0.06,0.0616137,1.00065,1.24783,0.248417,2.2475,1.00019
0.07,0.0668587,1.00072,1.24719,0.247839,2.24681,1.00021
0.08,0.0712719,1.00077,1.2465,0.247194,2.24609,1.00022
0.09,0.0750414,1.00078,1.24577,0.246492,2.24536,1.00022
0.1,0.0783061,1.00078,1.245,0.245744,2.2446,1.00021
0.11,0.081177,1.00077,1.24421,0.244958,2.24381,1.0002
0.12,0.0837458,1.00076,1.24338,0.244141,2.24299,1.00019
0.13,0.0861559,1.00076,1.24253,0.243301,2.24215,1.00018
0.14,0.0886552,1.00077,1.24166,0.242444,2.24129,1.00019
0.15,0.0908828,1.00078,1.24076,0.241559,2.2404,1.0002
0.16,0.092929,1.0008,1.23984,0.240658,2.23948,1.00021
0.17,0.0947912,1.00085,1.23891,0.239752,2.23852,1.00023
0.18,0.0964706,1.0009,1.23795,0.238834,2.23754,1.00025
0.19,0.0978983,1.00096,1.23698,0.237903,2.23654,1.00027
0.2,0.0991255,1.001,1.23599,0.236958,2.23553,1.00029
0.21,0.100006,1.00104,1.235,0.235995,2.23451,1.0003
0.22,0.100497,1.00106,1.234,0.235013,2.23349,1.0003
0.23,0.100928,1.00107,1.23299,0.234017,2.23248,1.0003
0.24,0.101286,1.00107,1.23198,0.233012,2.23147,1.0003
0.25,0.101575,1.00106,1.23097,0.231997,2.23046,1.00029
0.26,0.101671,1.00104,1.22995,0.230977,2.22945,1.00028
0.27,0.101688,1.00104,1.22894,0.229957,2.22843,1.00027
0.28,0.101616,1.00103,1.22792,0.228942,2.22741,1.00026
0.29,0.101628,1.00103,1.22691,0.227931,2.22639,1.00026
0.3,0.102031,1.00104,1.22589,0.226924,2.22538,1.00026
0.31,0.102397,1.00105,1.22487,0.225915,2.22437,1.00027
0.32,0.102783,1.00107,1.22384,0.2249,2.22335,1.00029
0.33,0.103204,1.0011,1.22281,0.223891,2.22231,1.00031
0.34,0.10357,1.00114,1.22178,0.222884,2.22125,1.00032
0.35,0.103881,1.00118,1.22074,0.221875,2.22019,1.00033
0.36,0.10403,1.00121,1.2197,0.220862,2.21913,1.00034
0.37,0.103703,1.00123,1.21867,0.219839,2.21807,1.00035
0.38,0.103418,1.00124,1.21763,0.218809,2.21703,1.00035
0.39,0.10318,1.00123,1.2166,0.217777,2.216,1.00034
0.4,0.102987,1.00121,1.21557,0.216734,2.21498,1.00033
0.41,0.102674,1.00119,1.21454,0.215692,2.21396,1.00032
0.42,0.102289,1.00117,1.21352,0.214654,2.21295,1.00031
0.43,0.101893,1.00115,1.2125,0.213627,2.21193,1.0003
0.44,0.101545,1.00114,1.21148,0.212609,2.21091,1.00029
0.45,0.101592,1.00114,1.21047,0.211599,2.2099,1.00029
0.46,0.101739,1.00115,1.20945,0.210595,2.2089,1.0003
0.47,0.101921,1.00116,1.20843,0.209584,2.20789,1.00031
0.48,0.102146,1.00119,1.20741,0.208579,2.20686,1.00033
0.49,0.102358,1.00122,1.20639,0.207579,2.20583,1.00035
0.5,0.102513,1.00126,1.20537,0.206581,2.20478,1.00036
0.51,0.102576,1.00129,1.20434,0.205581,2.20373,1.00037
0.52,0.10217,1.00131,1.20332,0.204574,2.20269,1.00037
0.53,0.101671,1.00133,1.2023,0.203562,2.20165,1.00037
0.54,0.101211,1.00132,1.20129,0.20255,2.20065,1.00037
0.55,0.100822,1.0013,1.20028,0.201536,2.19965,1.00036
0.56,0.100355,1.00129,1.19927,0.200523,2.19865,1.00035
0.57,0.0998193,1.00127,1.19827,0.19951,2.19766,1.00034
0.58,0.0992759,1.00125,1.19728,0.198504,2.19667,1.00033
0.59,0.0987677,1.00124,1.19629,0.197508,2.19568,1.00032
0.6,0.0985224,1.00123,1.1953,0.196521,2.19469,1.00031
0.61,0.0985836,1.00123,1.19432,0.195544,2.19372,1.00032
0.62,0.0986648,1.00124,1.19333,0.194565,2.19275,1.00033
0.63,0.0987879,1.00126,1.19235,0.193586,2.19176,1.00034
0.64,0.0989389,1.00128,1.19136,0.192613,2.19077,1.00036
0.65,0.0990589,1.00131,1.19037,0.191643,2.18976,1.00037
0.66,0.0991288,1.00135,1.18938,0.190673,2.18875,1.00038
0.67,0.0990008,1.00137,1.18839,0.189702,2.18774,1.00039
0.68,0.0984581,1.00139,1.1874,0.188725,2.18673,1.00039
0.69,0.0979338,1.00139,1.18642,0.187746,2.18574,1.00039
0.7,0.097462,1.00138,1.18544,0.186773,2.18478,1.00038
0.71,0.0970651,1.00137,1.18447,0.185796,2.18381,1.00038
0.72,0.0965483,1.00135,1.1835,0.184826,2.18286,1.00036
0.73,0.0959539,1.00134,1.18254,0.183853,2.1819,1.00036
0.74,0.0953663,1.00132,1.18159,0.18289,2.18094,1.00035
0.75,0.0948137,1.00132,1.18064,0.181936,2.17999,1.00034
0.76,0.0945224,1.00131,1.17969,0.180992,2.17904,1.00034
0.77,0.0945512,1.00132,1.17875,0.180056,2.17811,1.00034
0.78,0.0945939,1.00133,1.1778,0.179122,2.17718,1.00035
0.79,0.0946652,1.00134,1.17686,0.178185,2.17623,1.00037
0.8,0.0947562,1.00136,1.17591,0.177253,2.17528,1.00038
0.81,0.0948301,1.00139,1.17496,0.176323,2.17432,1.00039
0.82,0.0948593,1.00142,1.17401,0.175394,2.17335,1.0004
0.83,0.0947863,1.00145,1.17307,0.174466,2.17239,1.00041
0.84,0.0941927,1.00147,1.17212,0.173533,2.17143,1.00041
0.85,0.0935794,1.00147,1.17118,0.172597,2.17047,1.00041
0.86,0.093026,1.00146,1.17025,0.171663,2.16955,1.0004
0.87,0.0925571,1.00144,1.16932,0.170729,2.16864,1.0004
0.88,0.0921366,1.00143,1.1684,0.1698,2.16772,1.00039
0.89,0.0915709,1.00141,1.16748,0.168874,2.16681,1.00038
0.9,0.0909765,1.0014,1.16657,0.16795,2.1659,1.00037
0.91,0.0904027,1.00139,1.16567,0.167037,2.16499,1.00036
0.92,0.0898971,1.00138,1.16476,0.166136,2.16409,1.00036
0.93,0.0897261,1.00138,1.16387,0.165243,2.16319,1.00036
0.94,0.0897751,1.00139,1.16297,0.164359,2.16231,1.00036
0.95,0.089827,1.0014,1.16207,0.163473,2.16142,1.00037
0.96,0.0898094,1.00142,1.16118,0.162585,2.16052,1.00038
0.97,0.0899277,1.00144,1.16028,0.1617,2.15962,1.0004
0.98,0.090014,1.00147,1.15938,0.160818,2.1587,1.00041
0.99,0.0900526,1.0015,1.15848,0.159936,2.15778,1.00042
1,0.0900002,1.00152,1.15758,0.159055,2.15687,1.00043
1.01,0.0894274,1.00153,1.15668,0.15817,2.15597,1.00043
1.02,0.0887683,1.00154,1.15579,0.157283,2.15505,1.00042
1.03,0.0881542,1.00153,1.15491,0.156397,2.15418,1.00042
1.04,0.0876467,1.00152,1.15403,0.155513,2.15331,1.00041
1.05,0.087245,1.0015,1.15316,0.15463,2.15245,1.00041
1.06,0.0867675,1.00148,1.15229,0.153758,2.15159,1.0004
1.07,0.086178,1.00147,1.15142,0.152882,2.15073,1.00039
1.08,0.0855923,1.00146,1.15056,0.152015,2.14987,1.00038
1.09,0.0850355,1.00145,1.14971,0.15116,2.14901,1.00038
1.1,0.0846063,1.00145,1.14886,0.150316,2.14815,1.00037
1.11,0.0845536,1.00146,1.14802,0.149479,2.14732,1.00037
1.12,0.0846386,1.00146,1.14717,0.14865,2.14649,1.00038
1.13,0.0847196,1.00147,1.14633,0.147814,2.14565,1.00039
1.14,0.0848051,1.00149,1.14548,0.146979,2.1448,1.0004
1.15,0.0849132,1.00151,1.14463,0.146146,2.14395,1.00041
1.16,0.0849798,1.00154,1.14378,0.145315,2.14308,1.00043
1.17,0.0849977,1.00157,1.14294,0.144486,2.14221,1.00044
1.18,0.084922,1.0016,1.14209,0.143658,2.14135,1.00044
1.19,0.0843232,1.00162,1.14124,0.142828,2.14049,1.00045
1.2,0.0835472,1.00163,1.1404,0.141995,2.13963,1.00044
1.21,0.0828957,1.00162,1.13957,0.141163,2.1388,1.00044
1.22,0.082276,1.00161,1.13874,0.140332,2.13799,1.00043
1.23,0.0818166,1.00159,1.13792,0.139505,2.13718,1.00043
1.24,0.0813764,1.00157,1.13711,0.138686,2.13637,1.00042
1.25,0.0807343,1.00156,1.1363,0.137871,2.13557,1.00041
1.26,0.0800997,1.00155,1.1355,0.137049,2.13477,1.00041
1.27,0.0795105,1.00154,1.1347,0.136242,2.13397,1.0004
1.28,0.0789698,1.00154,1.13391,0.135448,2.13317,1.00039
1.29,0.0786273,1.00153,1.13312,0.134662,2.13238,1.00039
1.3,0.0786486,1.00153,1.13233,0.133883,2.13161,1.00039
1.31,0.0787737,1.00153,1.13155,0.133109,2.13084,1.0004
1.32,0.0788881,1.00154,1.13076,0.132331,2.13006,1.0004
1.33,0.0789659,1.00156,1.12997,0.131553,2.12927,1.00041
1.34,0.0790624,1.00158,1.12918,0.130776,2.12847,1.00043
1.35,0.0791307,1.00161,1.12839,0.130002,2.12767,1.00044
1.36,0.0791554,1.00164,1.1276,0.129231,2.12686,1.00045
1.37,0.0791253,1.00166,1.12681,0.128461,2.12605,1.00046
1.38,0.0788102,1.00168,1.12602,0.127689,2.12525,1.00046
1.39,0.0780909,1.0017,1.12524,0.126912,2.12444,1.00046
1.4,0.0773519,1.00169,1.12446,0.126135,2.12366,1.00046
1.41,0.076755,1.00168,1.12369,0.125359,2.12291,1.00045
1.42,0.076248,1.00167,1.12293,0.124595,2.12215,1.00045
1.43,0.0758337,1.00165,1.12217,0.123833,2.1214,1.00044
1.44,0.0753863,1.00164,1.12141,0.123077,2.12066,1.00043
1.45,0.0747298,1.00163,1.12066,0.122325,2.11991,1.00042
1.46,0.0740558,1.00163,1.11992,0.121566,2.11916,1.00042
1.47,0.0734662,1.00162,1.11918,0.120824,2.11842,1.00042
1.48,0.0729282,1.00162,1.11845,0.120092,2.11768,1.00041
1.49,0.0725308,1.00162,1.11772,0.119367,2.11695,1.00041
1.5,0.0724722,1.00162,1.117,0.118648,2.11624,1.00041
1.51,0.072575,1.00162,1.11627,0.117935,2.11553,1.00041
1.52,0.0726784,1.00162,1.11555,0.117224,2.11481,1.00042
1.53,0.0726911,1.00164,1.11482,0.116515,2.11409,1.00043
1.54,0.0728117,1.00166,1.11409,0.115803,2.11336,1.00044
1.55,0.0729438,1.00169,1.11337,0.115088,2.11262,1.00045
1.56,0.0730441,1.00172,1.11264,0.114377,2.11187,1.00046
1.57,0.0730844,1.00175,1.11191,0.113668,2.11112,1.00047
1.58,0.0730535,1.00177,1.11118,0.112959,2.11039,1.00048
1.59,0.0727256,1.00178,1.11045,0.112248,2.10965,1.00048
1.6,0.0719723,1.00179,1.10972,0.111532,2.10891,1.00048
1.61,0.0712707,1.00179,1.10901,0.110815,2.10819,1.00047
1.62,0.0706547,1.00177,1.1083,0.1101,2.10749,1.00047
1.63,0.07015,1.00176,1.1076,0.109386,2.1068,1.00046
1.64,0.0697502,1.00175,1.1069,0.108681,2.10611,1.00046
1.65,0.069422,1.00173,1.1062,0.107986,2.10542,1.00045
1.66,0.0688844,1.00173,1.10551,0.107294,2.10473,1.00044
1.67,0.0681566,1.00172,1.10483,0.106593,2.10405,1.00044
1.68,0.0674956,1.00172,1.10415,0.105906,2.10336,1.00044
1.69,0.0668913,1.00172,1.10348,0.105232,2.10268,1.00044
1.7,0.0663535,1.00172,1.10281,0.104569,2.102,1.00043
1.71,0.0659512,1.00171,1.10215,0.103912,2.10134,1.00043
1.72,0.0658667,1.00171,1.10149,0.10326,2.1007,1.00043
1.73,0.0660061,1.00171,1.10083,0.102612,2.10006,1.00043
1.74,0.0661683,1.00171,1.10017,0.101966,2.09941,1.00043
1.75,0.0663165,1.00172,1.09951,0.101316,2.09875,1.00044
1.76,0.0664528,1.00174,1.09885,0.100665,2.09809,1.00045
1.77,0.0666119,1.00176,1.09818,0.100014,2.09741,1.00046
1.78,0.0667478,1.00179,1.09752,0.099367,2.09673,1.00047
1.79,0.0668218,1.00183,1.09685,0.0987231,2.09605,1.00048
1.8,0.0668328,1.00185,1.09618,0.0980797,2.09536,1.00049
1.81,0.0667626,1.00187,1.09552,0.097435,2.09469,1.0005
1.82,0.0663541,1.00189,1.09485,0.0967875,2.09402,1.0005
1.83,0.0655494,1.0019,1.09419,0.0961358,2.09333,1.0005
1.84,0.0647972,1.0019,1.09354,0.0954835,2.09268,1.00049
1.85,0.0641353,1.00188,1.0929,0.0948332,2.09205,1.00049
1.86,0.0635962,1.00187,1.09226,0.0941838,2.09142,1.00049
1.87,0.0631519,1.00185,1.09162,0.093544,2.0908,1.00048
1.88,0.0627974,1.00184,1.09099,0.0929161,2.09017,1.00047
1.89,0.0624948,1.00184,1.09037,0.0922907,2.08955,1.00047
1.9,0.0618226,1.00183,1.08975,0.0916682,2.08893,1.00046
1.91,0.0610801,1.00183,1.08913,0.0910346,2.08831,1.00047
1.92,0.0604137,1.00183,1.08853,0.0904193,2.0877,1.00047
1.93,0.0598138,1.00183,1.08793,0.0898165,2.08708,1.00046
1.94,0.0592829,1.00183,1.08733,0.0892224,2.08648,1.00046
1.95,0.0588574,1.00182,1.08674,0.0886345,2.0859,1.00045
1.96,0.0586866,1.00181,1.08615,0.088051,2.08532,1.00045
1.97,0.0587863,1.00181,1.08557,0.0874709,2.08476,1.00045
1.98,0.0590012,1.00181,1.08498,0.0868949,2.08418,1.00045
1.99,0.0592062,1.00182,1.08439,0.086318,2.08359,1.00045
2,0.0593899,1.00183,1.0838,0.0857384,2.083,1.00046
2.01,0.0595593,1.00185,1.0832,0.0851587,2.0824,1.00047
2.02,0.0597322,1.00188,1.08261,0.0845813,2.08179,1.00048
2.03,0.059866,1.00191,1.08201,0.0840068,2.08118,1.0005
2.04,0.0599277,1.00194,1.08141,0.0834343,2.08057,1.00051
2.05,0.0599188,1.00197,1.08081,0.0828618,2.07996,1.00051
2.06,0.0598382,1.00199,1.08021,0.0822873,2.07935,1.00052
2.07,0.059657,1.00201,1.07962,0.0817107,2.07875,1.00052
2.08,0.0588694,1.00202,1.07902,0.0811312,2.07815,1.00053
2.09,0.0580059,1.00203,1.07844,0.080549,2.07754,1.00052
2.1,0.057229,1.00201,1.07786,0.0799678,2.07697,1.00051
2.11,0.0565701,1.002,1.07729,0.0793884,2.07642,1.00051
2.12,0.0560424,1.00198,1.07673,0.0788127,2.07586,1.0005
2.13,0.05562,1.00197,1.07617,0.0782481,2.07531,1.0005
2.14,0.0552796,1.00196,1.07562,0.0776913,2.07477,1.00049
2.15,0.0550065,1.00195,1.07507,0.0771384,2.07422,1.00049
2.16,0.0547832,1.00194,1.07452,0.0765894,2.07367,1.00048
2.17,0.0539907,1.00194,1.07398,0.0760457,2.07313,1.00048
2.18,0.0532945,1.00194,1.07344,0.0754876,2.07259,1.00049
2.19,0.0526772,1.00194,1.07291,0.0749512,2.07205,1.00049
2.2,0.0521317,1.00194,1.07239,0.0744246,2.07151,1.00048
2.21,0.0516536,1.00194,1.07187,0.073905,2.07099,1.00048
2.22,0.0512575,1.00193,1.07136,0.0733911,2.07048,1.00047
2.23,0.0510399,1.00191,1.07085,0.072881,2.06998,1.00046
2.24,0.051088,1.00191,1.07034,0.0723738,2.06949,1.00046
2.25,0.0513381,1.0019,1.06982,0.0718693,2.06899,1.00046
2.26,0.0516354,1.00191,1.06931,0.0713683,2.06848,1.00046
2.27,0.0519065,1.00192,1.06879,0.0708666,2.06797,1.00047
2.28,0.0521389,1.00194,1.06827,0.0703627,2.06745,1.00048
2.29,0.0523328,1.00196,1.06775,0.0698588,2.06692,1.00049
2.3,0.0525032,1.00199,1.06723,0.0693572,2.06638,1.0005
2.31,0.0526349,1.00202,1.0667,0.0688575,2.06584,1.00051
2.32,0.0526928,1.00205,1.06618,0.0683575,2.0653,1.00052
2.33,0.052678,1.00208,1.06565,0.0678579,2.06476,1.00053
2.34,0.0526033,1.0021,1.06512,0.0673567,2.06423,1.00054
2.35,0.052469,1.00212,1.0646,0.0668532,2.0637,1.00054
2.36,0.052254,1.00214,1.06407,0.0663477,2.06317,1.00055
2.37,0.051482,1.00215,1.06356,0.0658403,2.06265,1.00055
2.38,0.0505881,1.00216,1.06305,0.0653313,2.06211,1.00054
2.39,0.0497917,1.00214,1.06254,0.0648222,2.06162,1.00054
2.4,0.0491191,1.00213,1.06205,0.0643164,2.06114,1.00053
2.41,0.0485815,1.00211,1.06156,0.0638118,2.06066,1.00053
2.42,0.048153,1.00209,1.06108,0.0633169,2.06018,1.00052
2.43,0.0478155,1.00208,1.0606,0.0628307,2.05971,1.00052
2.44,0.0475626,1.00207,1.06012,0.0623513,2.05924,1.00051
2.45,0.0473639,1.00206,1.05965,0.0618757,2.05877,1.00051
2.46,0.0471904,1.00206,1.05918,0.0614034,2.0583,1.0005
2.47,0.0469439,1.00206,1.05871,0.0609345,2.05783,1.0005
2.48,0.046211,1.00206,1.05824,0.0604714,2.05736,1.0005
2.49,0.0456084,1.00206,1.05778,0.0599998,2.05689,1.00051
2.5,0.0450785,1.00207,1.05733,0.0595424,2.05643,1.00051
2.51,0.0446103,1.00207,1.05688,0.0590922,2.05597,1.0005
2.52,0.0441995,1.00206,1.05644,0.0586464,2.05552,1.0005
2.53,0.0438448,1.00205,1.056,0.0582057,2.05509,1.00049
2.54,0.0435777,1.00204,1.05556,0.057768,2.05467,1.00049
2.55,0.0434856,1.00203,1.05513,0.0573331,2.05425,1.00048
2.56,0.0436032,1.00202,1.05469,0.0569,2.05382,1.00048
2.57,0.0438856,1.00202,1.05426,0.0564689,2.05339,1.00048
2.58,0.0442159,1.00203,1.05381,0.0560418,2.05295,1.00048
2.59,0.0445107,1.00204,1.05337,0.0556168,2.05251,1.00049
2.6,0.0447549,1.00206,1.05293,0.0551899,2.05206,1.0005
2.61,0.0449374,1.00209,1.05248,0.0547619,2.05161,1.00051
2.62,0.0450626,1.00212,1.05203,0.0543436,2.05115,1.00052
2.63,0.0451424,1.00215,1.05158,0.053923,2.05069,1.00053
2.64,0.045167,1.00218,1.05113,0.0535018,2.05022,1.00054
2.65,0.0451171,1.00221,1.05067,0.0530791,2.04976,1.00055
2.66,0.044978,1.00224,1.05022,0.0526552,2.0493,1.00056
2.67,0.0447963,1.00226,1.04978,0.0522335,2.04884,1.00056
2.68,0.0445746,1.00228,1.04933,0.0518093,2.04839,1.00057
2.69,0.0443099,1.00229,1.04889,0.0513832,2.04795,1.00057
2.7,0.0439876,1.0023,1.04844,0.0509559,2.0475,1.00057
2.71,0.0431012,1.00231,1.04801,0.0505285,2.04706,1.00057
2.72,0.0422263,1.00232,1.04758,0.0501013,2.0466,1.00057
2.73,0.0414585,1.0023,1.04717,0.0496744,2.0462,1.00056
2.74,0.0408204,1.00229,1.04675,0.0492496,2.0458,1.00056
2.75,0.0403089,1.00227,1.04635,0.0488272,2.04541,1.00055
2.76,0.0398996,1.00225,1.04595,0.0484131,2.04501,1.00055
2.77,0.0395774,1.00224,1.04555,0.0480059,2.04462,1.00054
2.78,0.039334,1.00223,1.04516,0.0476042,2.04423,1.00054
2.79,0.0391609,1.00222,1.04477,0.0472062,2.04384,1.00053
2.8,0.0390299,1.00221,1.04437,0.0468131,2.04346,1.00053
2.81,0.0389259,1.00221,1.04399,0.0464243,2.04307,1.00053
2.82,0.038829,1.00221,1.0436,0.0460392,2.04268,1.00053
2.83,0.038723,1.00221,1.04321,0.0456571,2.04229,1.00052
2.84,0.0383226,1.00221,1.04282,0.0452769,2.04191,1.00052
2.85,0.0376773,1.00222,1.04244,0.0448984,2.04152,1.00053
2.86,0.0371342,1.00222,1.04207,0.0445195,2.04114,1.00053
2.87,0.0366477,1.00223,1.0417,0.0441488,2.04076,1.00053
2.88,0.0362157,1.00223,1.04134,0.0437849,2.04039,1.00053
2.89,0.0358373,1.00222,1.04098,0.0434245,2.04003,1.00052
2.9,0.0355091,1.00221,1.04062,0.0430674,2.03968,1.00052
2.91,0.035234,1.0022,1.04027,0.0427149,2.03934,1.00051
2.92,0.0350533,1.00219,1.03992,0.042365,2.039,1.0005
2.93,0.0350255,1.00218,1.03957,0.0420173,2.03865,1.0005
2.94,0.035171,1.00218,1.03922,0.0416718,2.03831,1.0005
2.95,0.0354437,1.00219,1.03886,0.0413283,2.03796,1.0005
2.96,0.0357923,1.0022,1.03851,0.0409882,2.03761,1.00051
2.97,0.0361075,1.00221,1.03815,0.0406518,2.03725,1.00051
2.98,0.0363623,1.00223,1.03779,0.0403164,2.03688,1.00051
2.99,0.0365509,1.00226,1.03742,0.0399796,2.03652,1.00052
3,0.0366692,1.00229,1.03706,0.0396413,2.03614,1.00053
3.01,0.036724,1.00232,1.03669,0.0393035,2.03576,1.00054
3.02,0.0367305,1.00235,1.03632,0.0389669,2.03539,1.00055
3.03,0.0367095,1.00238,1.03596,0.0386315,2.03501,1.00056
3.04,0.0366436,1.00241,1.03559,0.0382951,2.03463,1.00057
3.05,0.0365212,1.00243,1.03522,0.0379595,2.03426,1.00058
3.06,0.0362326,1.00246,1.03486,0.0376231,2.03389,1.00058
3.07,0.036067,1.00248,1.0345,0.0372858,2.03352,1.00059
3.08,0.0358789,1.00249,1.03414,0.03695,2.03316,1.00059
3.09,0.0356743,1.00251,1.03378,0.0366132,2.0328,1.0006
3.1,0.0354423,1.00252,1.03343,0.0362761,2.03244,1.0006
3.11,0.0351764,1.00253,1.03307,0.0359391,2.03209,1.0006
3.12,0.0346938,1.00254,1.03272,0.0356021,2.03173,1.0006
3.13,0.0337348,1.00256,1.03238,0.0352665,2.03136,1.0006
3.14,0.0328768,1.00255,1.03205,0.0349321,2.03102,1.00059
3.15,0.0321405,1.00254,1.03173,0.0345998,2.03071,1.00059
3.16,0.0315466,1.00252,1.03141,0.0342676,2.03041,1.00059
3.17,0.0310803,1.0025,1.03109,0.0339364,2.03011,1.00058
3.18,0.0307089,1.00248,1.03079,0.0336117,2.02981,1.00057
3.19,0.0304236,1.00247,1.03048,0.0332944,2.02951,1.00057
3.2,0.0302076,1.00245,1.03018,0.032981,2.02921,1.00056
3.21,0.0300709,1.00244,1.02988,0.032671,2.02891,1.00056
3.22,0.0299823,1.00244,1.02958,0.0323662,2.02862,1.00056
3.23,0.0299286,1.00243,1.02928,0.0320661,2.02832,1.00056
3.24,0.0298916,1.00243,1.02898,0.031769,2.02802,1.00055
3.25,0.0298596,1.00243,1.02868,0.0314752,2.02772,1.00055
3.26,0.0298197,1.00244,1.02838,0.0312019,2.02743,1.00055
3.27,0.0297553,1.00245,1.02808,0.0309187,2.02713,1.00055
3.28,0.0296567,1.00246,1.02779,0.0306375,2.02683,1.00055
3.29,0.0295195,1.00247,1.02749,0.0303579,2.02653,1.00055
3.3,0.029124,1.00248,1.0272,0.0300774,2.02624,1.00055
3.31,0.0285082,1.00249,1.02691,0.029796,2.02594,1.00055
3.32,0.027997,1.0025,1.02663,0.0295133,2.02565,1.00056
3.33,0.0275451,1.0025,1.02635,0.029239,2.02536,1.00056
3.34,0.0271511,1.0025,1.02608,0.0289626,2.02508,1.00056
3.35,0.0268055,1.0025,1.02581,0.0286945,2.02481,1.00055
3.36,0.0265079,1.00249,1.02554,0.0284289,2.02456,1.00055
3.37,0.0262594,1.00248,1.02528,0.0281652,2.0243,1.00054
3.38,0.0260519,1.00247,1.02502,0.0278982,2.02405,1.00054
3.39,0.0258968,1.00246,1.02476,0.0276368,2.02379,1.00053
3.4,0.0258072,1.00245,1.0245,0.0273793,2.02354,1.00053
3.41,0.0258021,1.00245,1.02424,0.0271237,2.02329,1.00052
3.42,0.0258989,1.00245,1.02398,0.026878,2.02303,1.00052
3.43,0.0260949,1.00246,1.02373,0.0266298,2.02277,1.00053
3.44,0.0263248,1.00247,1.02346,0.0263823,2.02251,1.00053
3.45,0.0265845,1.00248,1.0232,0.0261383,2.02225,1.00053
3.46,0.026848,1.0025,1.02293,0.0258974,2.02198,1.00054
3.47,0.0270502,1.00252,1.02266,0.025657,2.02171,1.00054
3.48,0.0271896,1.00254,1.02239,0.0254174,2.02143,1.00055
3.49,0.0272618,1.00257,1.02212,0.0251809,2.02116,1.00055
3.5,0.0272757,1.0026,1.02185,0.0249382,2.02088,1.00056
3.51,0.0272359,1.00263,1.02158,0.0246958,2.02059,1.00057
3.52,0.0271473,1.00266,1.0213,0.0244548,2.02031,1.00058
3.53,0.0270216,1.00269,1.02103,0.0242155,2.02003,1.00059
3.54,0.0268678,1.00271,1.02076,0.023976,2.01975,1.0006
3.55,0.0267013,1.00274,1.0205,0.0237364,2.01948,1.0006
3.56,0.0265239,1.00277,1.02023,0.0235126,2.01921,1.00061
3.57,0.0263298,1.00279,1.01997,0.0232791,2.01894,1.00061
3.58,0.026115,1.00281,1.01971,0.0230443,2.01868,1.00062
