time,velocity,ratio,centerX,Xmax,Xmin,Ymax
0,0,1,1.25,0.25,2.25,1
0.01,0.0152726,1.00003,1.24992,0.249965,2.24991,1.00001
0.02,0.0281192,1.00013,1.2497,0.249855,2.24966,1.00003
0.03,0.03898,1.00027,1.24937,0.249669,2.24926,1.00006
0.04,0.0481554,1.00043,1.24893,0.249393,2.24875,1.00011
0.05,0.0559387,1.0006,1.24841,0.249028,2.24815,1.00016
0.06,0.0625117,1.00077,1.24782,0.248583,2.24747,1.00021
0.07,0.0680622,1.00093,1.24717,0.248065,2.24672,1.00026
0.08,0.0727499,1.00108,1.24646,0.247482,2.24594,1.0003
0.09,0.0767264,1.00119,1.24572,0.246838,2.24512,1.00033
0.1,0.0801182,1.00128,1.24493,0.246141,2.24428,1.00035
0.11,0.0830289,1.00135,1.24412,0.245397,2.24343,1.00037
0.12,0.0855511,1.00139,1.24327,0.244612,2.24257,1.00037
0.13,0.0878635,1.00142,1.24241,0.243792,2.24169,1.00037
0.14,0.0900839,1.00144,1.24152,0.24294,2.24081,1.00038
0.15,0.0920205,1.00146,1.24061,0.242057,2.23992,1.00039
0.16,0.0937766,1.00147,1.23968,0.241144,2.23901,1.0004
0.17,0.09538,1.00149,1.23874,0.240217,2.23806,1.00041
0.18,0.0967991,1.00152,1.23778,0.239281,2.2371,1.00043
0.19,0.0980955,1.00156,1.2368,0.23834,2.2361,1.00044
0.2,0.0991823,1.0016,1.23582,0.237391,2.23509,1.00045
0.21,0.0999708,1.00165,1.23482,0.236433,2.23407,1.00046
0.22,0.1006,1.00169,1.23382,0.235463,2.23303,1.00047
0.23,0.101128,1.00172,1.23281,0.234485,2.232,1.00048
0.24,0.101574,1.00175,1.2318,0.233501,2.23098,1.00048
0.25,0.101925,1.00177,1.23078,0.23251,2.22995,1.00049
0.26,0.102076,1.00179,1.22976,0.231512,2.22892,1.00049
0.27,0.102125,1.0018,1.22874,0.230502,2.22788,1.00048
0.28,0.102127,1.0018,1.22772,0.229494,2.22685,1.00048
0.29,0.102235,1.00181,1.2267,0.228487,2.22582,1.00048
0.3,0.102486,1.00183,1.22568,0.22748,2.2248,1.00049
0.31,0.102757,1.00184,1.22465,0.226471,2.22379,1.0005
0.32,0.103004,1.00186,1.22362,0.225456,2.22276,1.00051
0.33,0.103258,1.00188,1.22259,0.224441,2.22173,1.00052
0.34,0.103494,1.00191,1.22156,0.223431,2.22069,1.00054
0.35,0.103655,1.00194,1.22053,0.222423,2.21964,1.00055
0.36,0.103609,1.00198,1.21949,0.221416,2.21858,1.00056
0.37,0.10347,1.00201,1.21846,0.220403,2.21751,1.00056
0.38,0.103292,1.00203,1.21742,0.219386,2.21646,1.00057
0.39,0.103122,1.00204,1.21639,0.218366,2.21542,1.00057
0.4,0.103038,1.00205,1.21536,0.217342,2.21439,1.00057
0.41,0.102859,1.00204,1.21433,0.216315,2.21336,1.00056
0.42,0.102515,1.00204,1.21331,0.215288,2.21233,1.00055
0.43,0.102162,1.00203,1.21228,0.214257,2.2113,1.00055
0.44,0.10191,1.00202,1.21127,0.213239,2.21028,1.00054
0.45,0.101901,1.00203,1.21025,0.212227,2.20927,1.00054
0.46,0.101942,1.00203,1.20923,0.211219,2.20827,1.00055
0.47,0.101999,1.00204,1.20821,0.210206,2.20726,1.00056
0.48,0.102084,1.00205,1.20719,0.209195,2.20624,1.00057
0.49,0.102165,1.00207,1.20617,0.208189,2.20522,1.00058
0.5,0.102226,1.0021,1.20515,0.20719,2.20419,1.00059
0.51,0.102058,1.00213,1.20413,0.206194,2.20314,1.0006
0.52,0.101773,1.00216,1.20311,0.205197,2.20209,1.0006
0.53,0.101464,1.00218,1.20209,0.204196,2.20106,1.00061
0.54,0.101159,1.00219,1.20108,0.203197,2.20004,1.00061
0.55,0.100868,1.0022,1.20007,0.202199,2.19903,1.00061
0.56,0.100593,1.0022,1.19907,0.201201,2.19802,1.0006
0.57,0.100147,1.0022,1.19806,0.200206,2.19701,1.0006
0.58,0.0996418,1.00219,1.19706,0.199201,2.19602,1.00059
0.59,0.0991873,1.00217,1.19607,0.198201,2.19502,1.00058
0.6,0.0989899,1.00218,1.19508,0.197211,2.19403,1.00058
0.61,0.09892,1.00218,1.19409,0.196228,2.19306,1.00059
0.62,0.098878,1.00218,1.1931,0.195246,2.19208,1.0006
0.63,0.0988671,1.00219,1.19212,0.194261,2.1911,1.0006
0.64,0.0988683,1.0022,1.19113,0.193281,2.19011,1.00062
0.65,0.0988668,1.00222,1.19014,0.192307,2.18912,1.00063
0.66,0.0988053,1.00225,1.18915,0.191338,2.18812,1.00063
0.67,0.0984883,1.00228,1.18817,0.190371,2.18711,1.00064
0.68,0.0981488,1.0023,1.18718,0.189402,2.18609,1.00064
0.69,0.0978045,1.00231,1.1862,0.188432,2.1851,1.00064
0.7,0.0974681,1.00231,1.18523,0.187465,2.18413,1.00064
0.71,0.0971508,1.00232,1.18426,0.186506,2.18315,1.00064
0.72,0.0968507,1.00232,1.18329,0.185545,2.18219,1.00063
0.73,0.0963782,1.00232,1.18232,0.184592,2.18122,1.00063
0.74,0.0958142,1.00231,1.18136,0.18363,2.18026,1.00062
0.75,0.0953185,1.0023,1.18041,0.18267,2.1793,1.00061
0.76,0.0950703,1.00231,1.17945,0.181721,2.17835,1.00062
0.77,0.0949692,1.00231,1.17851,0.18078,2.17742,1.00062
0.78,0.0948879,1.00232,1.17756,0.179841,2.17647,1.00063
0.79,0.0948306,1.00233,1.17661,0.178902,2.17553,1.00064
0.8,0.0947861,1.00235,1.17566,0.177966,2.17458,1.00065
0.81,0.0947225,1.00237,1.17471,0.177036,2.17363,1.00066
0.82,0.0946467,1.00239,1.17377,0.176108,2.17268,1.00067
0.83,0.0942696,1.00242,1.17282,0.175183,2.17171,1.00068
0.84,0.0938651,1.00244,1.17188,0.174257,2.17074,1.00068
0.85,0.0934557,1.00245,1.17095,0.173329,2.1698,1.00068
0.86,0.0930668,1.00245,1.17002,0.172404,2.16886,1.00068
0.87,0.0927074,1.00245,1.16909,0.171481,2.16794,1.00067
0.88,0.0923757,1.00245,1.16816,0.170562,2.16701,1.00067
0.89,0.0920579,1.00244,1.16724,0.169647,2.16609,1.00066
0.9,0.0915104,1.00243,1.16632,0.168733,2.16518,1.00065
0.91,0.0909441,1.00242,1.16541,0.167811,2.16426,1.00065
0.92,0.0905139,1.00242,1.16451,0.166899,2.16336,1.00064
0.93,0.0903257,1.00242,1.1636,0.166,2.16246,1.00065
0.94,0.0902366,1.00243,1.1627,0.165108,2.16156,1.00065
0.95,0.0901667,1.00244,1.1618,0.164218,2.16067,1.00066
0.96,0.0900302,1.00245,1.1609,0.163327,2.15977,1.00067
0.97,0.0900049,1.00247,1.16,0.16244,2.15887,1.00068
0.98,0.0899676,1.00249,1.1591,0.161557,2.15797,1.00069
0.99,0.0898921,1.00251,1.1582,0.160677,2.15706,1.0007
1,0.0895026,1.00254,1.15731,0.159799,2.15614,1.0007
1.01,0.089077,1.00256,1.15641,0.158921,2.15522,1.0007
1.02,0.0886445,1.00257,1.15553,0.158041,2.15432,1.0007
1.03,0.0882186,1.00257,1.15464,0.157164,2.15344,1.0007
1.04,0.0878324,1.00257,1.15376,0.15629,2.15256,1.0007
1.05,0.0874921,1.00257,1.15289,0.155419,2.15169,1.0007
1.06,0.0871705,1.00256,1.15201,0.154552,2.15082,1.00069
1.07,0.0868149,1.00256,1.15114,0.153689,2.14995,1.00068
1.08,0.0862109,1.00255,1.15028,0.152827,2.14909,1.00067
1.09,0.0856705,1.00254,1.14942,0.151954,2.14823,1.00067
1.1,0.0853337,1.00254,1.14857,0.151099,2.14737,1.00067
1.11,0.0852076,1.00255,1.14772,0.150253,2.14653,1.00068
1.12,0.0851537,1.00256,1.14686,0.149416,2.14568,1.00068
1.13,0.0851037,1.00257,1.14601,0.148579,2.14483,1.00069
1.14,0.0850638,1.00258,1.14516,0.14774,2.14399,1.0007
1.15,0.085022,1.0026,1.14431,0.146906,2.14314,1.00071
1.16,0.0849631,1.00262,1.14346,0.146076,2.14228,1.00072
1.17,0.0848463,1.00265,1.14262,0.14525,2.14142,1.00073
1.18,0.0844204,1.00268,1.14177,0.144426,2.14055,1.00073
1.19,0.0839623,1.0027,1.14093,0.143601,2.13968,1.00073
1.2,0.0834956,1.00271,1.14009,0.142775,2.13883,1.00073
1.21,0.083037,1.00271,1.13926,0.141951,2.138,1.00074
1.22,0.0826117,1.00272,1.13843,0.141129,2.13718,1.00073
1.23,0.0822202,1.00271,1.13761,0.140313,2.13635,1.00073
1.24,0.0818613,1.00271,1.13679,0.139501,2.13554,1.00072
1.25,0.0814611,1.00271,1.13597,0.138692,2.13472,1.00072
1.26,0.0809829,1.0027,1.13516,0.137886,2.13391,1.00071
1.27,0.0802997,1.00269,1.13436,0.137075,2.13311,1.0007
1.28,0.0797905,1.00268,1.13356,0.136261,2.13231,1.0007
1.29,0.079519,1.00268,1.13276,0.135462,2.13152,1.00071
1.3,0.0794316,1.00269,1.13197,0.134672,2.13073,1.00071
1.31,0.0793465,1.00269,1.13117,0.133888,2.12994,1.00071
1.32,0.0793226,1.0027,1.13038,0.133106,2.12915,1.00072
1.33,0.079261,1.00271,1.12959,0.132323,2.12836,1.00073
1.34,0.0791884,1.00273,1.1288,0.131545,2.12758,1.00074
1.35,0.0791754,1.00275,1.128,0.13077,2.12678,1.00075
1.36,0.0790957,1.00277,1.12721,0.129998,2.12597,1.00076
1.37,0.0786959,1.0028,1.12643,0.129228,2.12517,1.00076
1.38,0.0782562,1.00282,1.12564,0.128459,2.12435,1.00076
1.39,0.0777461,1.00283,1.12486,0.127689,2.12356,1.00076
1.4,0.0773033,1.00284,1.12409,0.126919,2.12279,1.00076
1.41,0.0768922,1.00284,1.12332,0.126151,2.12202,1.00076
1.42,0.0765113,1.00283,1.12255,0.125387,2.12125,1.00076
1.43,0.0761541,1.00284,1.12179,0.124645,2.12049,1.00076
1.44,0.0758202,1.00284,1.12103,0.123899,2.11974,1.00075
1.45,0.0754851,1.00283,1.12027,0.123152,2.11898,1.00074
1.46,0.0749882,1.00283,1.11952,0.122411,2.11823,1.00073
1.47,0.0743149,1.00283,1.11877,0.121665,2.11749,1.00073
1.48,0.0737574,1.00282,1.11803,0.120912,2.11674,1.00073
1.49,0.0734995,1.00283,1.1173,0.120176,2.11601,1.00074
1.5,0.073373,1.00283,1.11657,0.119449,2.11528,1.00074
1.51,0.0733244,1.00285,1.11583,0.118729,2.11454,1.00075
1.52,0.0732777,1.00286,1.1151,0.118011,2.11381,1.00075
1.53,0.0731532,1.00287,1.11437,0.117292,2.11309,1.00076
1.54,0.073132,1.00289,1.11364,0.116583,2.11236,1.00077
1.55,0.0730927,1.00291,1.11291,0.115871,2.11163,1.00078
1.56,0.073044,1.00293,1.11218,0.115161,2.11089,1.00079
1.57,0.0728872,1.00295,1.11145,0.114453,2.11015,1.00079
1.58,0.0724694,1.00298,1.11072,0.113745,2.1094,1.0008
1.59,0.072025,1.00299,1.11,0.113037,2.10865,1.00079
1.6,0.0715765,1.003,1.10928,0.112329,2.10793,1.00079
1.61,0.0711443,1.003,1.10857,0.11162,2.10722,1.00079
1.62,0.0707427,1.003,1.10786,0.110915,2.10652,1.00079
1.63,0.0703707,1.003,1.10716,0.110214,2.10581,1.00079
1.64,0.0700318,1.003,1.10645,0.109519,2.10511,1.00079
1.65,0.0697203,1.00299,1.10576,0.108829,2.10442,1.00078
1.66,0.0694189,1.00299,1.10506,0.108141,2.10372,1.00077
1.67,0.0691215,1.00299,1.10437,0.107455,2.10303,1.00077
1.68,0.0684675,1.00298,1.10368,0.106772,2.10234,1.00076
1.69,0.0678284,1.00298,1.103,0.10608,2.10166,1.00076
1.7,0.0673553,1.00298,1.10232,0.105396,2.10098,1.00076
1.71,0.0671041,1.00299,1.10165,0.104727,2.1003,1.00077
1.72,0.0670153,1.003,1.10098,0.104067,2.09963,1.00077
1.73,0.0670088,1.00301,1.10031,0.103412,2.09897,1.00078
1.74,0.0669921,1.00302,1.09964,0.10276,2.0983,1.00078
1.75,0.0669661,1.00303,1.09897,0.102107,2.09764,1.00079
1.76,0.0669458,1.00304,1.09831,0.101454,2.09698,1.0008
1.77,0.0669132,1.00306,1.09764,0.100804,2.09631,1.00081
1.78,0.0668653,1.00308,1.09697,0.100156,2.09563,1.00081
1.79,0.0668007,1.00311,1.0963,0.0995108,2.09495,1.00082
1.8,0.0664804,1.00314,1.09563,0.0988676,2.09426,1.00083
1.81,0.0660293,1.00316,1.09497,0.0982249,2.09357,1.00083
1.82,0.0655536,1.00318,1.09432,0.0975815,2.0929,1.00083
1.83,0.0650813,1.00318,1.09366,0.0969382,2.09225,1.00083
1.84,0.064631,1.00318,1.09301,0.0962956,2.09161,1.00083
1.85,0.0642127,1.00318,1.09237,0.0956551,2.09097,1.00083
1.86,0.0638292,1.00318,1.09173,0.09502,2.09033,1.00083
1.87,0.063477,1.00318,1.0911,0.0943907,2.08969,1.00082
1.88,0.0631422,1.00317,1.09046,0.0937654,2.08906,1.00082
1.89,0.0628395,1.00317,1.08983,0.0931457,2.08844,1.00081
1.9,0.0625402,1.00317,1.08921,0.0925277,2.08781,1.00081
1.91,0.0622338,1.00317,1.08858,0.0919111,2.08719,1.0008
1.92,0.0615077,1.00317,1.08797,0.0912973,2.08657,1.0008
1.93,0.0608645,1.00317,1.08735,0.0906744,2.08595,1.0008
1.94,0.0603882,1.00317,1.08675,0.0900599,2.08534,1.0008
1.95,0.0601288,1.00318,1.08615,0.0894594,2.08473,1.00081
1.96,0.0600252,1.00318,1.08555,0.0888672,2.08413,1.00081
1.97,0.0600347,1.00319,1.08495,0.0882806,2.08353,1.00081
1.98,0.0600458,1.0032,1.08435,0.0876978,2.08294,1.00082
1.99,0.0600397,1.00321,1.08375,0.0871155,2.08235,1.00082
2,0.0600281,1.00322,1.08315,0.0865322,2.08176,1.00083
2.01,0.0600143,1.00324,1.08255,0.0859501,2.08116,1.00084
2.02,0.0599839,1.00326,1.08195,0.0853711,2.08056,1.00084
2.03,0.0599352,1.00328,1.08135,0.0847948,2.07995,1.00085
2.04,0.0598688,1.00331,1.08075,0.08422,2.07933,1.00086
2.05,0.0595272,1.00334,1.08015,0.0836474,2.07872,1.00086
2.06,0.0590583,1.00336,1.07956,0.0830755,2.0781,1.00087
2.07,0.0585687,1.00338,1.07897,0.0825035,2.0775,1.00086
2.08,0.0580782,1.00338,1.07839,0.0819309,2.07692,1.00086
2.09,0.0576043,1.00338,1.07781,0.0813598,2.07634,1.00087
2.1,0.0571646,1.00338,1.07724,0.0807889,2.07577,1.00087
2.11,0.05676,1.00338,1.07667,0.0802222,2.07521,1.00086
2.12,0.0563874,1.00338,1.0761,0.0796613,2.07464,1.00086
2.13,0.056048,1.00338,1.07554,0.0791051,2.07408,1.00085
2.14,0.0557419,1.00337,1.07498,0.0785529,2.07352,1.00085
2.15,0.0554615,1.00337,1.07443,0.0780036,2.07297,1.00085
2.16,0.0551899,1.00337,1.07388,0.0774577,2.07242,1.00084
2.17,0.0549229,1.00337,1.07333,0.076914,2.07187,1.00084
2.18,0.0546364,1.00336,1.07278,0.0763727,2.07133,1.00083
2.19,0.0538856,1.00337,1.07224,0.0758354,2.07078,1.00083
2.2,0.0532905,1.00337,1.0717,0.0752872,2.07024,1.00083
2.21,0.0528654,1.00337,1.07117,0.0747478,2.0697,1.00083
2.22,0.0526416,1.00337,1.07064,0.0742206,2.06917,1.00084
2.23,0.0525518,1.00338,1.07012,0.0737008,2.06865,1.00084
2.24,0.0525856,1.00339,1.06959,0.0731858,2.06812,1.00085
2.25,0.0526511,1.00339,1.06907,0.0726757,2.0676,1.00085
2.26,0.0526878,1.0034,1.06854,0.0721666,2.06709,1.00085
2.27,0.0527058,1.00341,1.06802,0.0716577,2.06657,1.00086
2.28,0.0527193,1.00342,1.06749,0.071148,2.06605,1.00086
2.29,0.0527237,1.00344,1.06696,0.0706395,2.06552,1.00087
2.3,0.0527085,1.00346,1.06643,0.0701337,2.06499,1.00088
2.31,0.0526731,1.00349,1.06591,0.0696304,2.06445,1.00089
2.32,0.052621,1.00351,1.06538,0.0691292,2.06391,1.00089
2.33,0.0524086,1.00354,1.06486,0.0686288,2.06337,1.0009
2.34,0.0519439,1.00357,1.06434,0.0681302,2.06282,1.0009
2.35,0.051466,1.00359,1.06382,0.0676316,2.06228,1.0009
2.36,0.0509776,1.00359,1.06331,0.0671325,2.06177,1.0009
2.37,0.0504993,1.00359,1.0628,0.066633,2.06127,1.0009
2.38,0.050048,1.00359,1.0623,0.0661337,2.06077,1.0009
2.39,0.0496335,1.00359,1.0618,0.0656362,2.06028,1.0009
2.4,0.0492563,1.00359,1.06131,0.0651416,2.05978,1.0009
2.41,0.0489125,1.00358,1.06082,0.0646526,2.05929,1.0009
2.42,0.0486012,1.00358,1.06033,0.0641673,2.05881,1.00089
2.43,0.0483255,1.00358,1.05984,0.0636853,2.05833,1.00089
2.44,0.0480781,1.00357,1.05936,0.0632068,2.05785,1.00088
2.45,0.0478548,1.00357,1.05888,0.0627309,2.05737,1.00088
2.46,0.0476438,1.00357,1.05841,0.0622637,2.0569,1.00088
2.47,0.0474218,1.00357,1.05793,0.0617978,2.05642,1.00087
2.48,0.0471879,1.00357,1.05746,0.0613321,2.05595,1.00087
2.49,0.0469363,1.00357,1.05699,0.0608675,2.05548,1.00087
2.5,0.0462615,1.00358,1.05652,0.0604126,2.05501,1.00087
2.51,0.0457313,1.00358,1.05606,0.0599508,2.05454,1.00087
2.52,0.0453529,1.00358,1.05561,0.0594897,2.05408,1.00087
2.53,0.0451415,1.00359,1.05516,0.0590378,2.05363,1.00088
2.54,0.045035,1.0036,1.05471,0.0585923,2.05318,1.00088
2.55,0.0450331,1.0036,1.05426,0.0581515,2.05273,1.00088
2.56,0.0451113,1.00361,1.05381,0.0577133,2.05228,1.00088
2.57,0.0451815,1.00361,1.05336,0.0572794,2.05184,1.00088
2.58,0.0452165,1.00362,1.0529,0.0568451,2.0514,1.00089
2.59,0.0452338,1.00363,1.05245,0.0564114,2.05095,1.00089
2.6,0.0452459,1.00365,1.052,0.0559773,2.0505,1.0009
2.61,0.0452462,1.00367,1.05155,0.0555436,2.05005,1.00091
2.62,0.0452226,1.00369,1.0511,0.0551121,2.04958,1.00091
2.63,0.0451757,1.00372,1.05064,0.0546886,2.04912,1.00092
2.64,0.0451052,1.00375,1.05019,0.0542711,2.04866,1.00093
2.65,0.0450094,1.00378,1.04974,0.053852,2.04819,1.00094
2.66,0.0446663,1.0038,1.04929,0.0534322,2.04774,1.00094
2.67,0.0441936,1.00383,1.04885,0.0530131,2.04727,1.00094
2.68,0.043708,1.00384,1.04841,0.0525959,2.04681,1.00094
2.69,0.0432114,1.00385,1.04798,0.052178,2.04638,1.00094
2.7,0.0427243,1.00386,1.04755,0.0517592,2.04596,1.00094
2.71,0.0422636,1.00386,1.04712,0.0513395,2.04554,1.00095
2.72,0.0418346,1.00386,1.0467,0.0509211,2.04512,1.00094
2.73,0.0414404,1.00386,1.04629,0.0505062,2.0447,1.00094
2.74,0.0410848,1.00386,1.04588,0.050094,2.04429,1.00094
2.75,0.0407658,1.00385,1.04547,0.0496844,2.04388,1.00094
2.76,0.0404783,1.00385,1.04506,0.0492792,2.04347,1.00094
2.77,0.0402169,1.00385,1.04466,0.0488776,2.04307,1.00093
2.78,0.0399826,1.00384,1.04426,0.0484794,2.04267,1.00093
2.79,0.0396755,1.00384,1.04386,0.0480842,2.04228,1.00093
2.8,0.0395244,1.00383,1.04346,0.0476926,2.04189,1.00092
2.81,0.0393827,1.00383,1.04307,0.047303,2.0415,1.00092
2.82,0.0392334,1.00383,1.04268,0.0469168,2.04111,1.00091
2.83,0.0390769,1.00383,1.04229,0.0465334,2.04072,1.00091
2.84,0.0389098,1.00383,1.0419,0.0461518,2.04033,1.00091
2.85,0.0387282,1.00383,1.04151,0.0457719,2.03994,1.0009
2.86,0.0385284,1.00383,1.04112,0.0453937,2.03955,1.0009
2.87,0.0379614,1.00384,1.04074,0.0450235,2.03917,1.0009
2.88,0.0375282,1.00385,1.04036,0.0446536,2.03878,1.0009
2.89,0.0372227,1.00386,1.03999,0.0442817,2.0384,1.00091
2.9,0.0370505,1.00387,1.03962,0.0439156,2.03803,1.00091
2.91,0.036955,1.00388,1.03925,0.0435555,2.03766,1.00092
2.92,0.0369327,1.00389,1.03888,0.0431994,2.03729,1.00092
2.93,0.0369946,1.00389,1.03851,0.0428465,2.03692,1.00092
2.94,0.0370878,1.0039,1.03814,0.0424971,2.03656,1.00092
2.95,0.0371504,1.00391,1.03777,0.0421511,2.0362,1.00092
2.96,0.0371798,1.00393,1.0374,0.0418055,2.03583,1.00093
2.97,0.0371845,1.00394,1.03703,0.0414595,2.03546,1.00093
2.98,0.0371709,1.00396,1.03666,0.0411143,2.03509,1.00094
2.99,0.0371633,1.00399,1.03628,0.0407707,2.03471,1.00095
3,0.0371346,1.00402,1.03591,0.0404274,2.03433,1.00095
3.01,0.0370811,1.00405,1.03554,0.040086,2.03394,1.00096
3.02,0.0370031,1.00408,1.03517,0.0397461,2.03356,1.00097
3.03,0.036899,1.00411,1.0348,0.0394084,2.03318,1.00098
3.04,0.0367739,1.00413,1.03444,0.0390743,2.0328,1.00098
3.05,0.0366274,1.00416,1.03407,0.0387406,2.03243,1.00099
3.06,0.0361082,1.00418,1.03371,0.0384084,2.03206,1.00099
3.07,0.0355987,1.00421,1.03335,0.038076,2.03167,1.00099
3.08,0.0350939,1.00422,1.03299,0.0377445,2.03131,1.00099
3.09,0.0345931,1.00422,1.03265,0.0374132,2.03097,1.00099
3.1,0.0341158,1.00423,1.0323,0.0370834,2.03064,1.00099
3.11,0.0336736,1.00423,1.03196,0.0367523,2.0303,1.00099
3.12,0.0332633,1.00423,1.03163,0.0364216,2.02997,1.00099
3.13,0.0328871,1.00423,1.0313,0.0360928,2.02964,1.00099
3.14,0.0325459,1.00423,1.03097,0.0357669,2.02931,1.00098
3.15,0.0322416,1.00423,1.03065,0.035444,2.02899,1.00098
3.16,0.0319757,1.00422,1.03033,0.035124,2.02867,1.00098
3.17,0.0317469,1.00422,1.03001,0.034807,2.02835,1.00098
3.18,0.0315277,1.00422,1.02969,0.0344917,2.02804,1.00098
3.19,0.0313433,1.00421,1.02938,0.0341795,2.02773,1.00097
3.2,0.0311773,1.00421,1.02907,0.0338723,2.02742,1.00097
3.21,0.0310245,1.00421,1.02876,0.0335675,2.02711,1.00097
3.22,0.0308827,1.00421,1.02845,0.0332657,2.0268,1.00096
3.23,0.0307499,1.00421,1.02814,0.0329661,2.0265,1.00096
3.24,0.0306241,1.00421,1.02783,0.032669,2.02619,1.00096
3.25,0.0304982,1.00422,1.02753,0.0323748,2.02589,1.00096
3.26,0.0303688,1.00422,1.02722,0.0320825,2.02558,1.00096
3.27,0.0302259,1.00423,1.02692,0.0317911,2.02528,1.00096
3.28,0.0300704,1.00423,1.02662,0.0315067,2.02497,1.00095
3.29,0.0298992,1.00425,1.02632,0.0312322,2.02467,1.00095
3.3,0.0297113,1.00426,1.02602,0.0309618,2.02437,1.00095
3.31,0.0295037,1.00427,1.02573,0.0306884,2.02407,1.00095
3.32,0.0292768,1.00428,1.02543,0.0304122,2.02378,1.00095
3.33,0.0287952,1.00429,1.02514,0.0301383,2.02348,1.00095
3.34,0.0283807,1.0043,1.02486,0.0298621,2.02319,1.00095
3.35,0.0280791,1.00431,1.02458,0.0295872,2.0229,1.00096
3.36,0.0278757,1.00432,1.0243,0.0293203,2.02262,1.00096
3.37,0.0277644,1.00433,1.02402,0.0290508,2.02234,1.00096
3.38,0.0276951,1.00434,1.02374,0.0287862,2.02207,1.00096
3.39,0.0276661,1.00435,1.02346,0.0285256,2.02179,1.00097
3.4,0.0276883,1.00435,1.02319,0.0282676,2.02152,1.00097
3.41,0.027755,1.00436,1.02291,0.0280053,2.02125,1.00097
3.42,0.0278358,1.00437,1.02263,0.0277474,2.02098,1.00097
3.43,0.0278957,1.00438,1.02236,0.0274953,2.0207,1.00097
3.44,0.027929,1.0044,1.02208,0.0272439,2.02042,1.00097
3.45,0.0279312,1.00442,1.0218,0.027001,2.02014,1.00098
3.46,0.0279084,1.00445,1.02152,0.0267566,2.01986,1.00098
3.47,0.0278618,1.00447,1.02124,0.0265085,2.01958,1.00099
3.48,0.0278034,1.0045,1.02096,0.0262628,2.01929,1.001
3.49,0.0277329,1.00453,1.02069,0.0260205,2.019,1.00101
3.5,0.0276439,1.00457,1.02041,0.0257783,2.01871,1.00102
3.51,0.0275266,1.0046,1.02013,0.025537,2.01843,1.00102
3.52,0.027385,1.00463,1.01986,0.0253008,2.01814,1.00103
3.53,0.0272263,1.00465,1.01959,0.0250577,2.01786,1.00104
3.54,0.0270541,1.00467,1.01932,0.0248168,2.01759,1.00104
3.55,0.0268726,1.0047,1.01905,0.0245791,2.01731,1.00105
3.56,0.0266833,1.00472,1.01878,0.0243441,2.01704,1.00105
3.57,0.0263828,1.00474,1.01851,0.0241103,2.01677,1.00105
3.58,0.0258311,1.00476,1.01825,0.0238778,2.0165,1.00105
