time,velocity,ratio,centerX,Xmax,Xmin,Ymax
0,0,1,7.25,6.25,8.25,1
0.01,0.0183639,0.999989,7.24991,6.2499,8.24993,1.00001
0.02,0.0342971,0.999999,7.24966,6.24964,8.24967,1.00001
0.03,0.0482963,1.00001,7.24926,6.24924,8.24925,1.00002
0.04,0.0606134,1.00002,7.24872,6.24871,8.2487,1.00002
0.05,0.0716435,1.00003,7.24807,6.24806,8.24804,1.00002
0.06,0.0815023,1.00004,7.24732,6.2473,8.24726,1.00002
0.07,0.0903815,1.00005,7.24647,6.24645,8.2464,1.00002
0.08,0.0984118,1.00006,7.24553,6.24552,8.24545,1.00002
0.09,0.105702,1.00006,7.24452,6.24451,8.24443,1.00002
0.1,0.112342,1.00006,7.24343,6.24343,8.24333,1.00002
0.11,0.118417,1.00006,7.24229,6.24228,8.24218,1.00001
0.12,0.124004,1.00006,7.24108,6.24108,8.24098,1.00001
0.13,0.129176,1.00008,7.23982,6.23983,8.23972,1.00002
0.14,0.133957,1.00009,7.23851,6.23853,8.23843,1.00004
0.15,0.138354,1.0001,7.23715,6.23719,8.23709,1.00005
0.16,0.142468,1.0001,7.23575,6.2358,8.23573,1.00006
0.17,0.146282,1.00009,7.23431,6.23438,8.23433,1.00007
0.18,0.149861,1.00007,7.23284,6.23292,8.23292,1.00007
0.19,0.153206,1.00005,7.23133,6.23142,8.23146,1.00007
0.2,0.156343,1.00003,7.22978,6.22988,8.22997,1.00007
0.21,0.159293,1.00001,7.22821,6.22832,8.22844,1.00007
0.22,0.162069,0.999988,7.2266,6.22673,8.22688,1.00007
0.23,0.164686,0.999996,7.22497,6.22511,8.22529,1.00008
0.24,0.167184,1.00001,7.22332,6.22347,8.22366,1.0001
0.25,0.16955,1.00003,7.22164,6.22182,8.22201,1.00012
0.26,0.171782,1.00004,7.21993,6.22014,8.22033,1.00013
0.27,0.173919,1.00005,7.21821,6.21845,8.21863,1.00014
0.28,0.175967,1.00006,7.21646,6.21673,8.21692,1.00015
0.29,0.177935,1.00006,7.2147,6.21499,8.21518,1.00016
0.3,0.179808,1.00007,7.21291,6.21322,8.21341,1.00016
0.31,0.181583,1.00007,7.2111,6.21144,8.21162,1.00016
0.32,0.183278,1.0001,7.20928,6.20964,8.2098,1.00018
0.33,0.184915,1.00013,7.20744,6.20784,8.20796,1.0002
0.34,0.186491,1.00017,7.20559,6.20601,8.2061,1.00021
0.35,0.188009,1.00021,7.20372,6.20418,8.20422,1.00023
0.36,0.189467,1.00025,7.20184,6.20234,8.20233,1.00025
0.37,0.190869,1.00027,7.19994,6.20046,8.20043,1.00026
0.38,0.192245,1.00029,7.19802,6.19857,8.1985,1.00026
0.39,0.19352,1.00031,7.1961,6.19665,8.19656,1.00027
0.4,0.194765,1.00033,7.19416,6.19472,8.1946,1.00027
0.41,0.195961,1.00038,7.1922,6.19278,8.19261,1.00029
0.42,0.197131,1.00043,7.19024,6.19083,8.19061,1.00032
0.43,0.198261,1.00047,7.18827,6.18887,8.1886,1.00034
0.44,0.199358,1.00051,7.18628,6.1869,8.18659,1.00035
0.45,0.200422,1.00057,7.18428,6.18493,8.18454,1.00037
0.46,0.201455,1.00062,7.18228,6.18295,8.18247,1.00038
0.47,0.202455,1.00067,7.18026,6.18097,8.18039,1.00038
0.48,0.203435,1.00072,7.17823,6.17897,8.1783,1.00039
0.49,0.204386,1.0008,7.17619,6.17697,8.1762,1.00042
0.5,0.205357,1.00088,7.17415,6.17497,8.1741,1.00044
0.51,0.206266,1.00095,7.17209,6.17296,8.17199,1.00047
0.52,0.207162,1.00101,7.17002,6.17094,8.1699,1.00049
0.53,0.208032,1.00106,7.16795,6.16891,8.16779,1.0005
0.54,0.208873,1.00111,7.16587,6.16686,8.16567,1.00052
0.55,0.209678,1.00117,7.16378,6.16481,8.16353,1.00052
0.56,0.21047,1.00123,7.16168,6.16276,8.16138,1.00054
0.57,0.211266,1.00132,7.15957,6.16071,8.15922,1.00057
0.58,0.212048,1.0014,7.15745,6.15865,8.15705,1.0006
0.59,0.212758,1.00148,7.15533,6.15659,8.15489,1.00062
0.6,0.213505,1.00155,7.1532,6.15452,8.15272,1.00064
0.61,0.214215,1.00161,7.15106,6.15243,8.15053,1.00066
0.62,0.214889,1.00167,7.14892,6.15034,8.14834,1.00067
0.63,0.215576,1.00174,7.14677,6.14825,8.14613,1.00068
0.64,0.216235,1.00184,7.14461,6.14616,8.14391,1.00071
0.65,0.2169,1.00193,7.14245,6.14406,8.14169,1.00074
0.66,0.217541,1.00202,7.14028,6.14196,8.13947,1.00077
0.67,0.218179,1.0021,7.1381,6.13986,8.13725,1.00079
0.68,0.21878,1.00217,7.13592,6.13774,8.13501,1.00081
0.69,0.219346,1.00224,7.13373,6.1356,8.13277,1.00082
0.7,0.219857,1.0023,7.13153,6.13344,8.13051,1.00083
0.71,0.220393,1.00237,7.12933,6.13127,8.12825,1.00085
0.72,0.220906,1.00244,7.12713,6.12909,8.12598,1.00089
0.73,0.221436,1.0025,7.12492,6.12689,8.12372,1.00091
0.74,0.22194,1.00257,7.1227,6.12469,8.12143,1.00094
0.75,0.22247,1.00265,7.12048,6.1225,8.11912,1.00095
0.76,0.222945,1.00273,7.11825,6.12032,8.11681,1.00097
0.77,0.223452,1.0028,7.11602,6.11813,8.1145,1.00097
0.78,0.223961,1.00288,7.11379,6.11595,8.1122,1.001
0.79,0.224486,1.00296,7.11155,6.11376,8.10991,1.00103
0.8,0.224992,1.00303,7.1093,6.11156,8.10765,1.00106
0.81,0.22551,1.00309,7.10705,6.10937,8.10538,1.00109
0.82,0.226023,1.00314,7.10479,6.10716,8.1031,1.00111
0.83,0.226494,1.00319,7.10253,6.10494,8.10081,1.00112
0.84,0.226974,1.00324,7.10027,6.10271,8.09851,1.00113
0.85,0.227452,1.00331,7.09799,6.10048,8.0962,1.00116
0.86,0.227921,1.00338,7.09572,6.09826,8.09388,1.00119
0.87,0.228359,1.00345,7.09344,6.09603,8.09158,1.00122
0.88,0.228789,1.00352,7.09115,6.0938,8.08926,1.00125
0.89,0.229265,1.00358,7.08886,6.09156,8.08694,1.00126
0.9,0.229682,1.00364,7.08657,6.08931,8.0846,1.00128
0.91,0.230112,1.0037,7.08427,6.08705,8.08225,1.00129
0.92,0.23053,1.00378,7.08197,6.08479,8.07989,1.00131
0.93,0.230972,1.00386,7.07967,6.08254,8.07754,1.00135
0.94,0.231385,1.00393,7.07735,6.08028,8.07518,1.00138
0.95,0.231808,1.00401,7.07504,6.07802,8.07282,1.0014
0.96,0.232173,1.00408,7.07272,6.07575,8.07044,1.00142
0.97,0.232563,1.00414,7.0704,6.07346,8.06805,1.00143
0.98,0.232928,1.00419,7.06807,6.07116,8.06566,1.00143
0.99,0.233301,1.00428,7.06574,6.06885,8.06326,1.00147
1,0.23367,1.00435,7.06341,6.06654,8.06087,1.0015
1.01,0.234033,1.00443,7.06107,6.06423,8.05845,1.00153
1.02,0.234388,1.00451,7.05873,6.06192,8.05602,1.00155
1.03,0.23474,1.0046,7.05639,6.05962,8.05358,1.00156
1.04,0.23508,1.00467,7.05404,6.05731,8.05114,1.00158
1.05,0.235265,1.00475,7.05169,6.05501,8.04871,1.00159
1.06,0.235627,1.00485,7.04933,6.0527,8.04629,1.00163
1.07,0.236024,1.00494,7.04698,6.0504,8.04387,1.00166
1.08,0.236399,1.00503,7.04462,6.0481,8.04145,1.00169
1.09,0.236761,1.00512,7.04225,6.04581,8.03902,1.00171
1.1,0.237097,1.0052,7.03988,6.0435,8.03658,1.00173
1.11,0.237416,1.00528,7.03751,6.04118,8.03413,1.00174
1.12,0.237743,1.00537,7.03514,6.03887,8.03169,1.00176
1.13,0.23804,1.00548,7.03276,6.03656,8.02925,1.0018
1.14,0.238323,1.00558,7.03038,6.03426,8.02681,1.00184
1.15,0.23861,1.00569,7.02799,6.03196,8.02436,1.00187
1.16,0.238896,1.00579,7.02561,6.02966,8.0219,1.00189
1.17,0.239185,1.00589,7.02322,6.02735,8.01943,1.0019
1.18,0.239451,1.00598,7.02083,6.02504,8.01696,1.00192
1.19,0.239739,1.00609,7.01843,6.02274,8.0145,1.00195
1.2,0.240018,1.00621,7.01603,6.02044,8.01204,1.00199
1.21,0.240284,1.00634,7.01363,6.01815,8.00957,1.00202
1.22,0.240528,1.00646,7.01123,6.01587,8.0071,1.00205
1.23,0.240731,1.00658,7.00882,6.01358,8.00461,1.00207
1.24,0.24093,1.00669,7.00642,6.01127,8.00212,1.00208
1.25,0.241142,1.00679,7.00401,6.00895,7.99964,1.0021
1.26,0.24138,1.0069,7.0016,6.00662,7.99716,1.00214
1.27,0.241574,1.00702,6.99918,6.00427,7.99465,1.00218
1.28,0.241737,1.00713,6.99677,6.00192,7.99214,1.00221
1.29,0.241907,1.00722,6.99435,5.99955,7.98964,1.00224
1.3,0.242107,1.00731,6.99193,5.9972,7.98717,1.00225
1.31,0.242321,1.00738,6.98951,5.99486,7.98471,1.00227
1.32,0.242543,1.00746,6.98709,5.99252,7.98229,1.00231
1.33,0.242825,1.00754,6.98466,5.99017,7.97986,1.00235
1.34,0.243113,1.00762,6.98223,5.98782,7.97743,1.00238
1.35,0.243375,1.00769,6.9798,5.98547,7.97498,1.00241
1.36,0.243659,1.00777,6.97736,5.98312,7.97252,1.00243
1.37,0.243898,1.00783,6.97493,5.98075,7.97006,1.00244
1.38,0.244179,1.00789,6.97249,5.97837,7.9676,1.00247
1.39,0.244443,1.00798,6.97005,5.97599,7.96514,1.00251
1.4,0.244674,1.00806,6.9676,5.97361,7.96267,1.00255
1.41,0.244919,1.00815,6.96515,5.97124,7.96018,1.00258
1.42,0.245141,1.00824,6.96271,5.96886,7.95769,1.0026
1.43,0.245406,1.00832,6.96025,5.96648,7.95518,1.00262
1.44,0.245647,1.00839,6.9578,5.96408,7.95267,1.00263
1.45,0.245932,1.00849,6.95534,5.96169,7.95017,1.00268
1.46,0.246176,1.00859,6.95288,5.95929,7.94765,1.00271
1.47,0.246415,1.00869,6.95042,5.9569,7.94512,1.00275
1.48,0.24662,1.00879,6.94796,5.9545,7.94258,1.00277
1.49,0.24686,1.00888,6.94549,5.95211,7.94003,1.00279
1.5,0.247084,1.00897,6.94302,5.94969,7.93748,1.00281
1.51,0.247323,1.00906,6.94055,5.94726,7.93494,1.00284
1.52,0.247554,1.00917,6.93808,5.94483,7.93236,1.00288
1.53,0.247785,1.00928,6.9356,5.94239,7.92978,1.00291
1.54,0.248001,1.00938,6.93312,5.93995,7.92719,1.00294
1.55,0.248226,1.00948,6.93064,5.93751,7.9246,1.00297
1.56,0.248439,1.00957,6.92816,5.93508,7.92203,1.00298
1.57,0.248625,1.00966,6.92568,5.93264,7.91947,1.00301
1.58,0.248818,1.00977,6.92319,5.93021,7.9169,1.00305
1.59,0.249033,1.00988,6.9207,5.92778,7.91433,1.00309
1.6,0.249257,1.00999,6.91821,5.92535,7.91175,1.00312
1.61,0.249434,1.0101,6.91572,5.92293,7.90916,1.00315
1.62,0.249603,1.01021,6.91323,5.9205,7.90657,1.00317
1.63,0.249752,1.01029,6.91073,5.91807,7.90399,1.00318
1.64,0.249917,1.01041,6.90823,5.91562,7.90141,1.00323
1.65,0.250099,1.01053,6.90573,5.91319,7.89882,1.00327
1.66,0.250275,1.01065,6.90323,5.91076,7.89622,1.00331
1.67,0.250475,1.01077,6.90073,5.90833,7.89362,1.00334
1.68,0.25065,1.01089,6.89822,5.90591,7.89101,1.00336
1.69,0.250843,1.01098,6.89572,5.90347,7.88842,1.00338
1.7,0.251037,1.0111,6.89321,5.90103,7.88583,1.00342
1.71,0.251221,1.01123,6.8907,5.8986,7.88322,1.00346
1.72,0.251359,1.01136,6.88819,5.89616,7.88061,1.0035
1.73,0.251476,1.01149,6.88567,5.89373,7.87799,1.00353
1.74,0.25161,1.01161,6.88316,5.89131,7.87538,1.00355
1.75,0.251739,1.01172,6.88064,5.88888,7.87278,1.00357
1.76,0.251885,1.01184,6.87813,5.88643,7.87015,1.0036
1.77,0.252025,1.01198,6.87561,5.88397,7.8675,1.00364
1.78,0.252172,1.0121,6.87309,5.88149,7.86486,1.00368
1.79,0.25231,1.01221,6.87057,5.879,7.86223,1.00372
1.8,0.252465,1.01229,6.86804,5.87651,7.85962,1.00374
1.81,0.252584,1.01235,6.86552,5.87401,7.85704,1.00376
1.82,0.25272,1.01243,6.86299,5.87153,7.85445,1.00379
1.83,0.252846,1.01254,6.86047,5.86906,7.85186,1.00383
1.84,0.253048,1.01266,6.85794,5.86659,7.84925,1.00388
1.85,0.25325,1.01276,6.85541,5.86413,7.84664,1.00391
1.86,0.253449,1.01286,6.85287,5.86166,7.84404,1.00394
1.87,0.253629,1.01295,6.85034,5.85919,7.84144,1.00396
1.88,0.253778,1.01304,6.8478,5.85672,7.83883,1.00398
1.89,0.253942,1.01315,6.84527,5.85423,7.83622,1.00403
1.9,0.254104,1.01326,6.84273,5.85174,7.83359,1.00407
1.91,0.254262,1.01337,6.84019,5.84925,7.83096,1.00411
1.92,0.254405,1.01348,6.83764,5.84677,7.82833,1.00413
1.93,0.25453,1.01358,6.8351,5.84429,7.82571,1.00416
1.94,0.254701,1.01367,6.83255,5.84181,7.82308,1.00417
1.95,0.25486,1.01378,6.83001,5.83931,7.82044,1.00421
1.96,0.255019,1.0139,6.82746,5.83682,7.81779,1.00426
1.97,0.255165,1.01402,6.82491,5.83432,7.81514,1.00429
1.98,0.255321,1.01413,6.82236,5.83183,7.81248,1.00432
1.99,0.255486,1.01424,6.8198,5.82934,7.80983,1.00435
2,0.255642,1.01435,6.81725,5.82685,7.80715,1.00436
2.01,0.255804,1.01448,6.81469,5.82434,7.80447,1.0044
2.02,0.255964,1.0146,6.81213,5.82182,7.80179,1.00444
2.03,0.256115,1.01472,6.80958,5.81929,7.79911,1.00448
2.04,0.25626,1.01482,6.80701,5.81677,7.79644,1.00451
2.05,0.256396,1.01491,6.80445,5.81424,7.79379,1.00454
2.06,0.256523,1.015,6.80189,5.81171,7.79114,1.00456
2.07,0.256639,1.01511,6.79932,5.8092,7.78847,1.00459
2.08,0.256767,1.01523,6.79676,5.80668,7.7858,1.00464
2.09,0.256891,1.01536,6.79419,5.80417,7.78313,1.00468
2.1,0.257031,1.01547,6.79162,5.80166,7.78046,1.00471
2.11,0.257141,1.01558,6.78905,5.79915,7.7778,1.00474
2.12,0.257239,1.01569,6.78648,5.79666,7.77514,1.00476
2.13,0.257338,1.01581,6.78391,5.79415,7.77246,1.00479
2.14,0.257446,1.01594,6.78134,5.79164,7.76978,1.00484
2.15,0.257588,1.01607,6.77876,5.78913,7.7671,1.00488
2.16,0.257675,1.01619,6.77619,5.78662,7.76443,1.00492
2.17,0.257819,1.01631,6.77361,5.78413,7.76176,1.00495
2.18,0.257931,1.01643,6.77103,5.78164,7.75909,1.00497
2.19,0.258059,1.01656,6.76845,5.77915,7.7564,1.00499
2.2,0.258118,1.0167,6.76587,5.77665,7.75371,1.00504
2.21,0.258205,1.01685,6.76329,5.77416,7.75102,1.00508
2.22,0.258272,1.01698,6.76071,5.77167,7.74835,1.00512
2.23,0.25832,1.01713,6.75813,5.76919,7.74564,1.00515
2.24,0.258368,1.01727,6.75554,5.76672,7.74293,1.00517
2.25,0.258422,1.01742,6.75296,5.76426,7.74023,1.00519
2.26,0.258468,1.01756,6.75038,5.76177,7.73756,1.00524
2.27,0.258536,1.01768,6.74779,5.75927,7.73491,1.00528
2.28,0.258593,1.01777,6.74521,5.75676,7.73229,1.00532
2.29,0.258662,1.01785,6.74262,5.75423,7.72967,1.00535
2.3,0.258726,1.01792,6.74004,5.7517,7.72704,1.00537
2.31,0.258802,1.01799,6.73745,5.74916,7.7244,1.00539
2.32,0.258928,1.01811,6.73486,5.74664,7.72176,1.00545
2.33,0.259048,1.01822,6.73227,5.74412,7.71911,1.00549
2.34,0.2592,1.01833,6.72968,5.74161,7.71648,1.00553
2.35,0.259378,1.01842,6.72709,5.7391,7.71383,1.00556
2.36,0.259485,1.01852,6.7245,5.73658,7.71117,1.00558
2.37,0.259613,1.01862,6.7219,5.73406,7.70851,1.0056
2.38,0.259731,1.01875,6.71931,5.73153,7.70583,1.00565
2.39,0.259875,1.01886,6.71671,5.72899,7.70315,1.0057
2.4,0.259999,1.01897,6.71411,5.72645,7.70048,1.00573
2.41,0.260107,1.01908,6.71151,5.72392,7.69779,1.00577
2.42,0.260193,1.01918,6.70891,5.72138,7.6951,1.00579
2.43,0.260283,1.01929,6.70631,5.71885,7.6924,1.00581
2.44,0.260406,1.01943,6.70371,5.71632,7.68969,1.00586
2.45,0.260535,1.01956,6.7011,5.71377,7.68698,1.0059
2.46,0.260665,1.01968,6.6985,5.71122,7.68427,1.00594
2.47,0.260799,1.01981,6.69589,5.70868,7.68153,1.00597
2.48,0.260918,1.01994,6.69328,5.70613,7.67879,1.00599
2.49,0.261058,1.02006,6.69067,5.70359,7.67605,1.00601
2.5,0.261183,1.02021,6.68806,5.70104,7.67332,1.00606
2.51,0.261311,1.02033,6.68545,5.69848,7.6706,1.00611
2.52,0.261428,1.02044,6.68284,5.6959,7.66789,1.00614
2.53,0.261535,1.02054,6.68023,5.69333,7.66517,1.00618
2.54,0.261636,1.02064,6.67761,5.69075,7.66245,1.0062
2.55,0.261733,1.02074,6.67499,5.68817,7.65971,1.00622
2.56,0.261821,1.02087,6.67238,5.68559,7.65698,1.00627
2.57,0.261882,1.021,6.66976,5.68302,7.65426,1.00632
2.58,0.261949,1.02112,6.66714,5.68045,7.65154,1.00636
2.59,0.26205,1.02124,6.66452,5.67789,7.64881,1.00639
2.6,0.262126,1.02135,6.6619,5.67532,7.64607,1.00641
2.61,0.262207,1.02147,6.65928,5.67277,7.64333,1.00643
2.62,0.262306,1.02162,6.65666,5.67021,7.64059,1.00648
2.63,0.262428,1.02174,6.65404,5.66764,7.63786,1.00653
2.64,0.262507,1.02187,6.65141,5.66507,7.63513,1.00657
2.65,0.262589,1.02199,6.64879,5.66251,7.63239,1.0066
2.66,0.262675,1.02212,6.64616,5.65995,7.62965,1.00663
2.67,0.262706,1.02223,6.64354,5.6574,7.6269,1.00665
2.68,0.262759,1.02238,6.64091,5.65485,7.62417,1.0067
2.69,0.262825,1.02251,6.63828,5.65228,7.62144,1.00674
2.7,0.262893,1.02266,6.63566,5.64972,7.61867,1.00678
2.71,0.262974,1.0228,6.63303,5.64716,7.6159,1.00681
2.72,0.263022,1.02293,6.6304,5.64461,7.61315,1.00684
2.73,0.263087,1.02304,6.62777,5.64206,7.61041,1.00685
2.74,0.263137,1.02318,6.62514,5.63951,7.6077,1.0069
2.75,0.26321,1.02329,6.62251,5.63695,7.60499,1.00695
2.76,0.263258,1.0234,6.61988,5.63436,7.60228,1.00698
2.77,0.263324,1.0235,6.61724,5.63177,7.59956,1.00701
2.78,0.263373,1.02359,6.61461,5.62917,7.59683,1.00704
2.79,0.263441,1.02366,6.61198,5.62655,7.59411,1.00706
2.8,0.263404,1.02377,6.60934,5.62394,7.59139,1.00711
2.81,0.263505,1.02389,6.60671,5.62136,7.58867,1.00715
2.82,0.263624,1.024,6.60408,5.61877,7.58594,1.00719
2.83,0.263751,1.02411,6.60144,5.61619,7.58321,1.00722
2.84,0.263844,1.02422,6.5988,5.61361,7.58046,1.00725
2.85,0.263954,1.02433,6.59616,5.61103,7.57772,1.00727
2.86,0.264054,1.02446,6.59353,5.60846,7.57499,1.00732
2.87,0.264157,1.02459,6.59089,5.60587,7.57224,1.00736
2.88,0.264238,1.02471,6.58824,5.60327,7.56949,1.0074
2.89,0.264262,1.02482,6.5856,5.60068,7.56674,1.00743
2.9,0.264318,1.02494,6.58296,5.59809,7.56397,1.00745
2.91,0.264375,1.02505,6.58032,5.5955,7.56122,1.00747
2.92,0.264467,1.0252,6.57767,5.59292,7.55844,1.00752
2.93,0.264562,1.02534,6.57503,5.59033,7.55565,1.00757
2.94,0.264666,1.02548,6.57238,5.58773,7.55286,1.0076
2.95,0.264767,1.02561,6.56974,5.58513,7.55008,1.00763
2.96,0.26486,1.02573,6.56709,5.58254,7.5473,1.00766
2.97,0.264962,1.02583,6.56444,5.57994,7.54455,1.00768
2.98,0.265059,1.02597,6.56179,5.57735,7.54179,1.00773
2.99,0.265147,1.0261,6.55914,5.57475,7.53903,1.00777
3,0.265227,1.02622,6.55649,5.57213,7.53626,1.00781
3.01,0.2653,1.02633,6.55384,5.5695,7.53348,1.00784
3.02,0.265366,1.02643,6.55119,5.56688,7.53071,1.00786
3.03,0.265391,1.02651,6.54854,5.56425,7.52795,1.00788
3.04,0.265421,1.02664,6.54588,5.56163,7.52519,1.00793
3.05,0.265449,1.02677,6.54323,5.55902,7.52242,1.00798
3.06,0.265494,1.02689,6.54057,5.5564,7.51964,1.00802
3.07,0.265533,1.02702,6.53792,5.5538,7.51686,1.00805
3.08,0.265592,1.02713,6.53527,5.5512,7.5141,1.00807
3.09,0.265651,1.02724,6.53261,5.5486,7.51134,1.00809
3.1,0.265727,1.02738,6.52995,5.54601,7.50857,1.00815
3.11,0.265781,1.02752,6.5273,5.54341,7.50579,1.00819
3.12,0.26581,1.02765,6.52464,5.54081,7.50301,1.00823
3.13,0.265826,1.02778,6.52198,5.53821,7.50023,1.00826
3.14,0.265906,1.02789,6.51932,5.53562,7.49747,1.00829
3.15,0.265908,1.02803,6.51667,5.53304,7.49467,1.00831
3.16,0.265901,1.0282,6.51401,5.53047,7.49188,1.00836
3.17,0.265902,1.02835,6.51135,5.52789,7.4891,1.0084
3.18,0.265912,1.02847,6.50869,5.52531,7.48635,1.00844
3.19,0.265928,1.02858,6.50603,5.52273,7.48363,1.00847
3.2,0.265919,1.02867,6.50337,5.52017,7.48093,1.00849
3.21,0.265938,1.02878,6.50072,5.51762,7.47822,1.00851
3.22,0.265956,1.02891,6.49806,5.51507,7.47551,1.00856
3.23,0.265969,1.02904,6.4954,5.51251,7.47279,1.00861
3.24,0.265982,1.02916,6.49274,5.50994,7.47006,1.00864
3.25,0.266001,1.02926,6.49008,5.50735,7.46735,1.00867
3.26,0.266016,1.02935,6.48742,5.50476,7.46462,1.0087
3.27,0.26605,1.02944,6.48476,5.50215,7.46189,1.00872
3.28,0.266083,1.02956,6.4821,5.49953,7.45915,1.00877
3.29,0.266142,1.02969,6.47944,5.49693,7.4564,1.00882
3.3,0.266217,1.02981,6.47678,5.49435,7.45364,1.00885
3.31,0.266316,1.02993,6.47412,5.49176,7.4509,1.00888
3.32,0.266398,1.03004,6.47146,5.48918,7.44814,1.00891
3.33,0.26651,1.03017,6.46879,5.48659,7.44537,1.00894
3.34,0.266587,1.03032,6.46613,5.48401,7.4426,1.00899
3.35,0.266657,1.03046,6.46346,5.48141,7.43981,1.00903
3.36,0.266676,1.03059,6.4608,5.4788,7.43704,1.00907
3.37,0.266727,1.03071,6.45813,5.47619,7.43425,1.0091
3.38,0.266775,1.03084,6.45546,5.47358,7.43144,1.00912
3.39,0.266845,1.03098,6.45279,5.47098,7.42863,1.00915
3.4,0.266918,1.03115,6.45013,5.46838,7.42581,1.0092
3.41,0.267026,1.03129,6.44746,5.46578,7.42301,1.00924
3.42,0.267132,1.03142,6.44479,5.46316,7.42022,1.00927
3.43,0.267237,1.03154,6.44212,5.46054,7.41743,1.0093
3.44,0.267328,1.03165,6.43945,5.45793,7.41464,1.00932
3.45,0.267432,1.03179,6.43677,5.45532,7.41184,1.00936
3.46,0.267506,1.03194,6.4341,5.45271,7.40903,1.00941
3.47,0.267588,1.03208,6.43142,5.45009,7.40623,1.00945
3.48,0.267646,1.0322,6.42875,5.44745,7.40344,1.00948
3.49,0.267682,1.03231,6.42607,5.4448,7.40064,1.00951
3.5,0.26772,1.03241,6.4234,5.44216,7.39784,1.00953
3.51,0.267764,1.03253,6.42072,5.43951,7.39503,1.00957
3.52,0.267802,1.03267,6.41804,5.43687,7.39222,1.00962
3.53,0.267827,1.0328,6.41537,5.43423,7.38942,1.00966
3.54,0.267861,1.03292,6.41269,5.4316,7.38662,1.00969
3.55,0.267905,1.03304,6.41001,5.42897,7.38382,1.00972
3.56,0.267959,1.03316,6.40733,5.42634,7.38101,1.00974
3.57,0.268001,1.0333,6.40465,5.42372,7.37819,1.00978
3.58,0.268041,1.03345,6.40197,5.4211,7.37538,1.00983
3.59,0.268059,1.03358,6.39929,5.41847,7.37259,1.00987
3.6,0.268072,1.03372,6.39661,5.41584,7.36975,1.0099
3.61,0.268103,1.03386,6.39393,5.41321,7.36692,1.00993
3.62,0.268154,1.03399,6.39125,5.41059,7.36409,1.00995
3.63,0.268197,1.03414,6.38857,5.40797,7.36128,1.00999
3.64,0.268252,1.03427,6.38589,5.40536,7.35849,1.01004
3.65,0.268304,1.03439,6.38321,5.40274,7.35572,1.01008
3.66,0.268336,1.03451,6.38053,5.40011,7.35295,1.01011
3.67,0.268391,1.03462,6.37784,5.3975,7.35016,1.01013
3.68,0.268451,1.03473,6.37516,5.39488,7.34738,1.01015
3.69,0.268498,1.03487,6.37248,5.39227,7.34459,1.0102
3.7,0.268525,1.03501,6.36979,5.38967,7.34181,1.01024
3.71,0.268563,1.03513,6.36711,5.38705,7.33903,1.01028
3.72,0.26859,1.03524,6.36442,5.38441,7.33624,1.01031
3.73,0.268633,1.03535,6.36174,5.38176,7.33344,1.01033
