time,velocity,ratio,centerX,Xmax,Xmin,Ymax
0,0,1,1.5,0.5,2.5,1
0.01,0.0177962,1.00002,1.49991,0.499932,2.49991,1
0.02,0.0355721,1.00007,1.49965,0.499726,2.49962,1.00001
0.03,0.053317,1.00015,1.49921,0.499379,2.49915,1.00003
0.04,0.0708004,1.00025,1.49859,0.498889,2.49849,1.00006
0.05,0.0884924,1.0004,1.4978,0.498275,2.49764,1.00008
0.06,0.105683,1.00059,1.49684,0.497532,2.4966,1.00012
0.07,0.123009,1.00079,1.4957,0.496634,2.4954,1.00017
0.08,0.140228,1.00107,1.49438,0.49565,2.49396,1.00022
0.09,0.157671,1.00133,1.4929,0.494473,2.49238,1.00028
0.1,0.17496,1.00166,1.49124,0.493176,2.4906,1.00037
0.11,0.191512,1.00204,1.48941,0.49174,2.48863,1.00048
0.12,0.20872,1.00245,1.48741,0.490153,2.48646,1.0006
0.13,0.225763,1.0029,1.48524,0.488429,2.4841,1.00073
0.14,0.242649,1.00338,1.4829,0.486563,2.48154,1.00086
0.15,0.259633,1.0039,1.4804,0.484541,2.47877,1.001
0.16,0.276511,1.00446,1.47772,0.482375,2.47581,1.00116
0.17,0.293087,1.00512,1.47488,0.480079,2.47261,1.00137
0.18,0.309698,1.00582,1.47187,0.47767,2.46924,1.00158
0.19,0.325969,1.00654,1.46869,0.475099,2.46568,1.0018
0.2,0.342403,1.00728,1.46535,0.47239,2.46196,1.00203
0.21,0.358841,1.0081,1.46185,0.469503,2.45799,1.0023
0.22,0.375094,1.00901,1.45819,0.466511,2.45382,1.0026
0.23,0.391301,1.00994,1.45436,0.46336,2.44946,1.00292
0.24,0.40711,1.01095,1.45037,0.460052,2.4448,1.00324
0.25,0.422919,1.01204,1.44622,0.456683,2.43998,1.00359
0.26,0.438715,1.0132,1.44192,0.453162,2.43495,1.00397
0.27,0.453703,1.01439,1.43746,0.449505,2.42974,1.00437
0.28,0.469079,1.01567,1.43285,0.445721,2.42426,1.00478
0.29,0.484272,1.01706,1.42809,0.441795,2.41856,1.00524
0.3,0.499427,1.01848,1.42318,0.437782,2.41269,1.0057
0.31,0.514345,1.01996,1.41811,0.43365,2.4066,1.00617
0.32,0.529239,1.0216,1.4129,0.429435,2.40026,1.00669
0.33,0.543986,1.02331,1.40753,0.425044,2.39363,1.00724
0.34,0.558484,1.02506,1.40203,0.420595,2.38685,1.00776
0.35,0.572803,1.02691,1.39637,0.41604,2.37988,1.00834
0.36,0.586816,1.02893,1.39058,0.411372,2.37255,1.00896
0.37,0.600673,1.03098,1.38464,0.406647,2.36507,1.00954
0.38,0.614452,1.03313,1.37857,0.401799,2.35741,1.0102
0.39,0.627829,1.03544,1.37236,0.396879,2.34944,1.01088
0.4,0.641075,1.03775,1.36602,0.391833,2.34132,1.01154
0.41,0.654222,1.04019,1.35955,0.386713,2.33302,1.01227
0.42,0.667171,1.0428,1.35295,0.381524,2.32437,1.013
0.43,0.679752,1.04538,1.34621,0.376164,2.31566,1.01375
0.44,0.692331,1.04817,1.33936,0.370845,2.30667,1.01454
0.45,0.704598,1.05103,1.33238,0.365462,2.29754,1.01533
0.46,0.716519,1.05396,1.32527,0.35993,2.28823,1.01617
0.47,0.728439,1.05701,1.31805,0.354324,2.27864,1.01701
0.48,0.739821,1.06009,1.31071,0.348681,2.26908,1.0179
0.49,0.751007,1.0634,1.30326,0.343054,2.25919,1.01881
0.5,0.761939,1.06671,1.2957,0.337279,2.24924,1.01975
0.51,0.772659,1.0701,1.28803,0.331404,2.23911,1.02071
0.52,0.783101,1.07367,1.28026,0.325594,2.22879,1.02171
0.53,0.793208,1.07726,1.27238,0.319666,2.21843,1.02273
0.54,0.803095,1.08095,1.2644,0.313695,2.20789,1.02377
0.55,0.812665,1.08473,1.25632,0.307743,2.19734,1.02485
0.56,0.822058,1.08857,1.24815,0.301668,2.18658,1.02593
0.57,0.831166,1.09249,1.23989,0.295607,2.17586,1.02708
0.58,0.840006,1.09659,1.23153,0.289504,2.16482,1.02822
0.59,0.848461,1.10067,1.22309,0.283372,2.15393,1.02943
0.6,0.856366,1.10482,1.21457,0.277152,2.14284,1.03062
0.61,0.864258,1.10918,1.20597,0.271044,2.13167,1.03189
0.62,0.871953,1.11345,1.19729,0.264767,2.12048,1.03312
0.63,0.879321,1.11805,1.18853,0.258696,2.10914,1.03444
0.64,0.886407,1.12254,1.1797,0.252354,2.09769,1.03574
0.65,0.893174,1.12731,1.17081,0.246268,2.0862,1.03709
0.66,0.899828,1.13206,1.16184,0.240043,2.07471,1.03847
0.67,0.905927,1.13696,1.15281,0.233886,2.06303,1.03984
0.68,0.911835,1.14202,1.14373,0.227645,2.05126,1.0413
0.69,0.917434,1.14707,1.13458,0.221466,2.03953,1.04272
0.7,0.922698,1.15227,1.12538,0.215265,2.02774,1.04423
0.71,0.927648,1.15758,1.11613,0.209118,2.01584,1.04571
0.72,0.932495,1.16303,1.10683,0.20294,2.00378,1.04721
0.73,0.936886,1.16856,1.09748,0.196886,1.99188,1.04877
0.74,0.940978,1.17419,1.08809,0.190763,1.97975,1.0503
0.75,0.94475,1.17992,1.07867,0.184828,1.96783,1.05189
0.76,0.948166,1.1859,1.0692,0.178737,1.95547,1.05351
0.77,0.951337,1.19189,1.05971,0.172943,1.94337,1.05508
0.78,0.954175,1.19789,1.05018,0.166908,1.93125,1.05675
0.79,0.956659,1.20422,1.04062,0.161187,1.91902,1.0584
0.8,0.958653,1.21038,1.03105,0.155326,1.9069,1.06003
0.81,0.960544,1.21696,1.02145,0.149714,1.89466,1.06176
0.82,0.962097,1.22351,1.01184,0.144151,1.88249,1.06344
0.83,0.963301,1.23005,1.00221,0.138557,1.87037,1.06511
0.84,0.964162,1.23701,0.992578,0.133295,1.85823,1.06688
0.85,0.964729,1.2438,0.982934,0.127741,1.84597,1.06857
0.86,0.964926,1.25093,0.973286,0.122707,1.8339,1.07029
0.87,0.964831,1.25814,0.963638,0.117527,1.82176,1.07208
0.88,0.96431,1.26539,0.953993,0.112557,1.80974,1.0738
0.89,0.963444,1.27288,0.944355,0.107731,1.79767,1.07554
0.9,0.962342,1.28045,0.934727,0.102751,1.78555,1.07737
0.91,0.960796,1.28813,0.925111,0.0983039,1.77378,1.07911
0.92,0.959,1.29593,0.915513,0.0936945,1.7618,1.08087
0.93,0.956754,1.30404,0.905935,0.0894393,1.75001,1.08272
0.94,0.954181,1.31229,0.89638,0.08531,1.73816,1.08451
0.95,0.951206,1.32062,0.886854,0.0812028,1.72632,1.08629
0.96,0.947799,1.32926,0.87736,0.077505,1.71475,1.08816
0.97,0.943979,1.33789,0.867902,0.0736457,1.70308,1.09
0.98,0.939811,1.34711,0.858483,0.0703885,1.69135,1.09181
0.99,0.935218,1.35606,0.849109,0.0669468,1.68001,1.0937
1,0.930316,1.36537,0.839782,0.0637039,1.66855,1.0956
1.01,0.924905,1.37509,0.830507,0.0610003,1.65718,1.09745
1.02,0.919108,1.3846,0.821288,0.05794,1.64591,1.09936
1.03,0.912837,1.39495,0.812129,0.0556271,1.63465,1.10132
1.04,0.906145,1.40505,0.803035,0.0532063,1.62359,1.10323
1.05,0.899085,1.41526,0.79401,0.0506919,1.61253,1.1052
1.06,0.891515,1.4265,0.785058,0.0490898,1.60143,1.10721
1.07,0.88347,1.43686,0.776185,0.0469313,1.5908,1.10916
1.08,0.874963,1.44807,0.767394,0.0453041,1.57999,1.11116
1.09,0.865943,1.45962,0.758691,0.0439657,1.56926,1.11318
1.1,0.856455,1.4707,0.75008,0.0422416,1.55882,1.11522
1.11,0.8464,1.48262,0.741567,0.0411867,1.54839,1.1173
1.12,0.835908,1.49464,0.733156,0.0400386,1.53788,1.11937
1.13,0.824839,1.5065,0.724853,0.0388994,1.5278,1.12152
1.14,0.813236,1.51876,0.716663,0.0380219,1.51783,1.12374
1.15,0.801113,1.53126,0.708593,0.0371603,1.50772,1.12591
1.16,0.788456,1.54369,0.700646,0.0363725,1.49797,1.12813
1.17,0.775178,1.55621,0.692829,0.0354754,1.4883,1.13045
1.18,0.761344,1.56876,0.685148,0.0345686,1.47864,1.1327
1.19,0.746943,1.58124,0.677607,0.0337047,1.46928,1.13499
1.2,0.7319,1.59399,0.670215,0.0327679,1.45989,1.13741
1.21,0.716285,1.60652,0.662976,0.0317904,1.45077,1.13981
1.22,0.700187,1.61912,0.655896,0.0307978,1.44168,1.1422
1.23,0.683466,1.63174,0.648979,0.0298194,1.43281,1.14466
1.24,0.666164,1.64434,0.642232,0.0288339,1.42412,1.14716
1.25,0.648221,1.65696,0.63566,0.027877,1.41538,1.14951
1.26,0.629639,1.66923,0.629271,0.0269086,1.40724,1.15205
1.27,0.61043,1.68148,0.623071,0.0259385,1.39919,1.15454
1.28,0.590518,1.69392,0.617067,0.0249105,1.3911,1.1571
1.29,0.56997,1.7064,0.611264,0.0238996,1.38314,1.15971
1.3,0.548749,1.71846,0.605671,0.0229608,1.37577,1.16238
1.31,0.526934,1.73103,0.600292,0.0220742,1.36819,1.16509
1.32,0.504573,1.74344,0.595134,0.0211109,1.3608,1.16784
1.33,0.48164,1.75554,0.590202,0.0201635,1.35384,1.17066
1.34,0.458395,1.76745,0.5855,0.0193336,1.34709,1.17337
1.35,0.434525,1.77976,0.581035,0.0184879,1.34003,1.17601
1.36,0.410422,1.79091,0.576809,0.0176646,1.33386,1.17859
1.37,0.385883,1.80195,0.572826,0.0168879,1.32765,1.18096
1.38,0.361167,1.81313,0.56909,0.0161708,1.3215,1.18336
1.39,0.335985,1.82316,0.565603,0.0153933,1.31596,1.18556
1.4,0.310655,1.83321,0.562368,0.0146872,1.31032,1.18758
1.41,0.285096,1.84316,0.559388,0.0141,1.30477,1.18946
1.42,0.259475,1.8516,0.556663,0.0133788,1.30012,1.19127
1.43,0.233684,1.86025,0.554195,0.0127803,1.29528,1.19288
1.44,0.207879,1.86833,0.551986,0.0121578,1.29079,1.19445
1.45,0.182123,1.87477,0.550034,0.0115277,1.2872,1.19579
1.46,0.156391,1.88147,0.548339,0.0110605,1.28357,1.19709
1.47,0.130798,1.88702,0.5469,0.0104855,1.28042,1.1982
1.48,0.105355,1.89225,0.545717,0.00996039,1.27745,1.1992
1.49,0.0800795,1.89583,0.544788,0.00944665,1.27531,1.19993
1.5,0.0551877,1.89923,0.544109,0.00894589,1.27303,1.2004
1.51,0.0305267,1.90192,0.543678,0.00850121,1.27113,1.20071
1.52,0.00631712,1.90428,0.543491,0.00806672,1.26924,1.20081
1.53,-0.0176141,1.90633,0.543545,0.00765019,1.26739,1.20074
1.54,-0.0411294,1.90743,0.543836,0.00725246,1.26591,1.2004
1.55,-0.0642545,1.90819,0.54436,0.00685727,1.26447,1.19988
1.56,-0.0869572,1.90801,0.545113,0.00646948,1.26343,1.19915
1.57,-0.109181,1.90684,0.54609,0.00608279,1.2628,1.19818
1.58,-0.131013,1.9042,0.547288,0.00569797,1.26298,1.19706
1.59,-0.152514,1.90166,0.548703,0.00532435,1.26292,1.19576
1.6,-0.173529,1.89668,0.55033,0.00499058,1.26428,1.19424
1.61,-0.194016,1.89133,0.552164,0.00461591,1.26573,1.1926
1.62,-0.214115,1.88506,0.554201,0.00432239,1.26783,1.1909
1.63,-0.233754,1.87681,0.556437,0.00400158,1.27113,1.18908
1.64,-0.252775,1.86655,0.558867,0.00233724,1.27423,1.18703
1.65,-0.271364,1.85531,0.561484,0.0010623,1.27825,1.18479
1.66,-0.289666,1.84573,0.564285,0.00163883,1.28288,1.18241
1.67,-0.307467,1.83487,0.567268,0.00179303,1.28796,1.17997
1.68,-0.324804,1.824,0.570425,0.00216806,1.29305,1.17728
1.69,-0.341843,1.81274,0.573755,0.00220048,1.29816,1.17462
1.7,-0.358535,1.80087,0.577253,0.00235036,1.3036,1.17169
1.71,-0.374773,1.78876,0.580916,0.00244953,1.30916,1.1687
1.72,-0.390865,1.77583,0.58474,0.00278237,1.31546,1.16555
1.73,-0.406775,1.7623,0.588725,0.00293741,1.32209,1.16238
1.74,-0.422318,1.74758,0.592867,0.00249164,1.32896,1.15905
1.75,-0.437649,1.7337,0.597163,0.00283618,1.33604,1.15568
1.76,-0.452627,1.71958,0.601611,0.00294375,1.34343,1.15253
1.77,-0.467382,1.70524,0.606207,0.00333305,1.35154,1.14951
1.78,-0.481781,1.69026,0.61095,0.00341163,1.35983,1.14635
1.79,-0.495823,1.67588,0.615835,0.00377029,1.36807,1.1432
1.8,-0.509433,1.66041,0.620858,0.00375596,1.37695,1.14004
1.81,-0.522637,1.64509,0.626015,0.00392695,1.38599,1.13681
1.82,-0.535531,1.62866,0.631303,0.0039605,1.39596,1.13355
1.83,-0.548084,1.61228,0.636718,0.00402888,1.40604,1.13021
1.84,-0.560145,1.59606,0.642257,0.00410729,1.41612,1.12683
1.85,-0.5717,1.57956,0.647913,0.00420647,1.42651,1.12331
1.86,-0.582902,1.56204,0.653683,0.00433828,1.43812,1.11982
1.87,-0.593599,1.54622,0.659563,0.00446501,1.44857,1.11645
1.88,-0.604003,1.53036,0.665549,0.00461613,1.4591,1.11294
1.89,-0.613779,1.51359,0.671635,0.00474552,1.47098,1.10964
1.9,-0.623083,1.4982,0.677817,0.00492565,1.48158,1.10616
1.91,-0.631945,1.4822,0.684089,0.0050815,1.49321,1.10286
1.92,-0.64022,1.46563,0.690448,0.00524552,1.5057,1.09956
1.93,-0.648045,1.45082,0.696887,0.00543995,1.51667,1.09626
1.94,-0.655254,1.43617,0.703401,0.00563848,1.52775,1.093
1.95,-0.661916,1.42227,0.709985,0.00581899,1.53823,1.08975
1.96,-0.668067,1.40751,0.716633,0.00601205,1.54997,1.08657
1.97,-0.67356,1.39282,0.723339,0.00619876,1.56202,1.08349
1.98,-0.6785,1.37797,0.730098,0.00642242,1.57455,1.08042
1.99,-0.682778,1.36332,0.736902,0.00659774,1.58705,1.07733
2,-0.686485,1.34908,0.743747,0.00684786,1.59957,1.07435
2.01,-0.689661,1.33469,0.750626,0.00708858,1.61263,1.07145
2.02,-0.692338,1.32111,0.757534,0.00734979,1.62501,1.06856
2.03,-0.694371,1.30721,0.764466,0.00766213,1.63817,1.06571
2.04,-0.695829,1.29513,0.771416,0.00798597,1.6495,1.06298
2.05,-0.696635,1.28243,0.778377,0.0083208,1.66173,1.06019
2.06,-0.696946,1.27142,0.785343,0.00875592,1.67247,1.05763
2.07,-0.696637,1.25938,0.79231,0.00909423,1.68467,1.05509
2.08,-0.695793,1.24928,0.79927,0.00951337,1.69472,1.05264
2.09,-0.694378,1.2384,0.80622,0.00995707,1.70599,1.05018
2.1,-0.692401,1.22899,0.813153,0.0105103,1.7157,1.04782
2.11,-0.68986,1.21891,0.820063,0.0110461,1.7266,1.04556
2.12,-0.686864,1.20986,0.826945,0.0116801,1.73657,1.04344
2.13,-0.683265,1.20108,0.833794,0.0124755,1.74656,1.04139
2.14,-0.679185,1.19263,0.840606,0.0132041,1.75625,1.0394
2.15,-0.674738,1.18448,0.847374,0.0140502,1.76579,1.03745
2.16,-0.669688,1.17614,0.854095,0.0148817,1.7758,1.03554
2.17,-0.664132,1.16843,0.860763,0.0157299,1.78501,1.03364
2.18,-0.658098,1.16042,0.867373,0.0166543,1.795,1.03182
2.19,-0.651585,1.15316,0.873921,0.0174937,1.80381,1.02996
2.2,-0.644656,1.14542,0.880401,0.0182427,1.81367,1.02826
2.21,-0.637285,1.13836,0.88681,0.0188876,1.82249,1.02657
2.22,-0.6294,1.13078,0.893143,0.0193986,1.83245,1.02508
2.23,-0.621169,1.12396,0.899395,0.0196787,1.841,1.02354
2.24,-0.612504,1.11676,0.905563,0.0197471,1.85048,1.02224
2.25,-0.603565,1.1101,0.911643,0.0196539,1.859,1.02092
2.26,-0.594254,1.10321,0.917631,0.0193721,1.868,1.01972
2.27,-0.58455,1.09666,0.923524,0.0189154,1.87651,1.01857
2.28,-0.574519,1.08986,0.929319,0.0182804,1.88534,1.01742
2.29,-0.564123,1.08372,0.935012,0.0175767,1.89336,1.01641
2.3,-0.553396,1.07736,0.940599,0.0168002,1.90175,1.01538
2.31,-0.542333,1.07159,0.946078,0.0159691,1.90947,1.01452
2.32,-0.530948,1.0657,0.951444,0.0151657,1.91751,1.01367
2.33,-0.519262,1.06019,0.956694,0.0143393,1.92503,1.01285
2.34,-0.507282,1.05455,0.961827,0.0135133,1.9329,1.01204
2.35,-0.49502,1.04931,0.966838,0.0126212,1.9402,1.01131
2.36,-0.482641,1.04432,0.971725,0.0117978,1.94744,1.01071
2.37,-0.469875,1.03939,0.976487,0.010829,1.95447,1.0101
2.38,-0.456842,1.03494,0.981121,0.00974124,1.96064,1.00953
2.39,-0.443499,1.03029,0.985622,0.00870352,1.96748,1.00905
2.4,-0.430079,1.02599,0.98999,0.00744016,1.9735,1.00858
2.41,-0.416342,1.02154,0.994221,0.00599225,1.97974,1.00813
2.42,-0.402398,1.01706,0.998315,0.00426012,1.98579,1.00767
2.43,-0.388216,1.01264,1.00227,0.00223011,1.99152,1.00722
2.44,-0.373899,1.00835,1.00608,0.000470173,1.99739,1.0068
2.45,-0.359403,1.00495,1.00974,2.80782e-05,2.00269,1.00629
2.46,-0.344738,1.00198,1.01326,-0,2.00761,1.00579
2.47,-0.329919,0.999301,1.01664,0.000190026,2.01214,1.00527
2.48,-0.314933,0.99651,1.01986,0.000139946,2.01658,1.0047
2.49,-0.29985,0.993932,1.02294,0.000257811,2.02076,1.00412
2.5,-0.284621,0.991406,1.02586,0.000459908,2.02483,1.00348
2.51,-0.269359,0.988753,1.02863,0.00031894,2.02881,1.00284
2.52,-0.253998,0.986624,1.03124,0.000700101,2.03226,1.0022
2.53,-0.23849,0.984355,1.03371,0.000644177,2.03547,1.0015
2.54,-0.222858,0.982112,1.03601,0.000666551,2.03882,1.00085
2.55,-0.207229,0.982085,1.03816,0.0047256,2.04165,1.00021
2.56,-0.191466,0.980924,1.04016,0.00672614,2.04467,0.999537
2.57,-0.175687,0.980498,1.04199,0.00927383,2.04697,0.998979
2.58,-0.159847,0.980105,1.04367,0.0123188,2.04955,0.998349
2.59,-0.144053,0.98013,1.04519,0.0155591,2.05153,0.997759
2.6,-0.128221,0.980568,1.04655,0.0191762,2.05322,0.997257
2.61,-0.112346,0.981027,1.04775,0.0224787,2.05465,0.996808
2.62,-0.0964936,0.981932,1.0488,0.025915,2.05533,0.996375
2.63,-0.08068,0.982796,1.04969,0.0291295,2.05595,0.995974
2.64,-0.0650132,0.984021,1.05041,0.0321248,2.05576,0.995647
2.65,-0.049352,0.985116,1.05099,0.0348849,2.05561,0.995322
2.66,-0.0336918,0.98617,1.0514,0.0372169,2.0552,0.995036
2.67,-0.0180976,0.987422,1.05166,0.0393952,2.05433,0.994797
2.68,-0.00248435,0.988545,1.05176,0.0414058,2.05359,0.994567
2.69,0.0128815,0.989692,1.05171,0.0432021,2.05265,0.994367
