time,velocity,ratio,centerX,Xmax,Xmin,Ymax
0,0,1,13.5,12.5,14.5,1
0.01,0.0196872,0.999988,13.4999,12.4999,14.4999,1.00001
0.02,0.0390774,0.999999,13.4996,12.4996,14.4996,1.00001
0.03,0.0581433,1.00001,13.4992,12.4991,14.4992,1.00002
0.04,0.0769213,1.00003,13.4985,12.4985,14.4985,1.00002
0.05,0.0954373,1.00005,13.4977,12.4976,14.4976,1.00002
0.06,0.113671,1.00007,13.4966,12.4966,14.4965,1.00003
0.07,0.131644,1.00009,13.4954,12.4954,14.4953,1.00003
0.08,0.149336,1.00012,13.494,12.494,14.4938,1.00002
0.09,0.166785,1.00014,13.4925,12.4925,14.4922,1.00002
0.1,0.183983,1.00018,13.4907,12.4908,14.4904,1.00002
0.11,0.200952,1.00025,13.4888,12.4889,14.4885,1.00005
0.12,0.217695,1.00031,13.4868,12.4868,14.4864,1.00007
0.13,0.234175,1.00037,13.4845,12.4846,14.4841,1.00009
0.14,0.250573,1.00041,13.4821,12.4823,14.4817,1.00011
0.15,0.266598,1.00045,13.4796,12.4798,14.4791,1.00013
0.16,0.282441,1.00051,13.4768,12.4771,14.4764,1.00015
0.17,0.298045,1.0006,13.4739,12.4743,14.4735,1.00019
0.18,0.313424,1.00075,13.4709,12.4714,14.4704,1.00025
0.19,0.328606,1.00093,13.4677,12.4683,14.4671,1.00032
0.2,0.343586,1.00111,13.4644,12.4651,14.4637,1.00038
0.21,0.358324,1.0013,13.4609,12.4618,14.46,1.00043
0.22,0.372852,1.00155,13.4572,12.4583,14.4562,1.00052
0.23,0.387201,1.00188,13.4534,12.4547,14.4522,1.00063
0.24,0.401319,1.00222,13.4495,12.451,14.4481,1.00074
0.25,0.415092,1.00257,13.4454,12.4472,14.4437,1.00083
0.26,0.428783,1.00297,13.4412,12.4432,14.4392,1.00096
0.27,0.442436,1.00343,13.4369,12.4391,14.4345,1.00112
0.28,0.455735,1.00391,13.4324,12.4349,14.4297,1.00126
0.29,0.468793,1.00444,13.4278,12.4307,14.4246,1.0014
0.3,0.481705,1.00508,13.4231,12.4263,14.4194,1.00161
0.31,0.494349,1.00573,13.4182,12.4218,14.414,1.00181
0.32,0.506822,1.00641,13.4132,12.4172,14.4085,1.00201
0.33,0.519111,1.00718,13.4081,12.4125,14.4028,1.00227
0.34,0.531184,1.008,13.4028,12.4078,14.3969,1.00253
0.35,0.54305,1.00886,13.3975,12.4029,14.3909,1.00278
0.36,0.554706,1.00982,13.392,12.398,14.3847,1.0031
0.37,0.566182,1.01083,13.3864,12.393,14.3783,1.00341
0.38,0.577409,1.0119,13.3807,12.3879,14.3717,1.00372
0.39,0.588397,1.01307,13.3749,12.3827,14.365,1.0041
0.4,0.59921,1.01429,13.369,12.3774,14.358,1.00446
0.41,0.609789,1.01553,13.3629,12.372,14.351,1.00485
0.42,0.620344,1.01688,13.3568,12.3666,14.3437,1.00528
0.43,0.630569,1.01828,13.3506,12.3611,14.3364,1.0057
0.44,0.640449,1.01979,13.3442,12.3555,14.3288,1.00616
0.45,0.650214,1.02137,13.3378,12.3499,14.3211,1.00664
0.46,0.659722,1.02301,13.3312,12.3442,14.3131,1.00711
0.47,0.669035,1.02478,13.3246,12.3385,14.305,1.00765
0.48,0.678164,1.02663,13.3179,12.3327,14.2967,1.00817
0.49,0.687081,1.02857,13.3111,12.3268,14.2883,1.00873
0.5,0.695816,1.03058,13.3041,12.3209,14.2796,1.00932
0.51,0.70405,1.03263,13.2972,12.3149,14.2708,1.00989
0.52,0.712304,1.03482,13.2901,12.3088,14.2618,1.01054
0.53,0.720355,1.03706,13.2829,12.3027,14.2527,1.01116
0.54,0.728242,1.03944,13.2757,12.2965,14.2434,1.01183
0.55,0.735801,1.04193,13.2684,12.2903,14.2338,1.01251
0.56,0.743194,1.04446,13.261,12.284,14.2241,1.01319
0.57,0.750396,1.04712,13.2535,12.2777,14.2143,1.01393
0.58,0.757368,1.04982,13.246,12.2714,14.2044,1.01464
0.59,0.764154,1.05268,13.2384,12.265,14.1942,1.01542
0.6,0.770702,1.0556,13.2307,12.2586,14.1839,1.01617
0.61,0.776996,1.05861,13.223,12.2521,14.1734,1.01696
0.62,0.783227,1.06171,13.2152,12.2455,14.1628,1.01777
0.63,0.789195,1.06492,13.2074,12.2389,14.1519,1.0186
0.64,0.794976,1.06827,13.1994,12.2324,14.141,1.01946
0.65,0.800533,1.07171,13.1915,12.2257,14.1298,1.02032
0.66,0.805857,1.0753,13.1835,12.2191,14.1185,1.02122
0.67,0.81073,1.07898,13.1754,12.2124,14.107,1.02211
0.68,0.815688,1.08279,13.1672,12.2057,14.0954,1.02306
0.69,0.820516,1.08664,13.1591,12.1989,14.0836,1.02398
0.7,0.825117,1.09064,13.1509,12.1921,14.0717,1.02496
0.71,0.8295,1.09466,13.1426,12.1853,14.0597,1.02592
0.72,0.833726,1.09886,13.1343,12.1784,14.0474,1.02692
0.73,0.837822,1.10314,13.1259,12.1715,14.0351,1.02791
0.74,0.841639,1.10754,13.1175,12.1646,14.0226,1.02892
0.75,0.845288,1.11204,13.1091,12.1576,14.01,1.02994
0.76,0.848835,1.11664,13.1006,12.1507,13.9972,1.03097
0.77,0.852204,1.12136,13.0921,12.1437,13.9843,1.03201
0.78,0.855353,1.12618,13.0836,12.1367,13.9713,1.03304
0.79,0.858436,1.13112,13.075,12.1296,13.9581,1.03412
0.8,0.861386,1.13609,13.0664,12.1225,13.9449,1.03517
0.81,0.86415,1.14123,13.0578,12.1154,13.9315,1.03628
0.82,0.866765,1.14645,13.0492,12.1083,13.918,1.03735
0.83,0.869364,1.15183,13.0405,12.1012,13.9044,1.03849
0.84,0.871688,1.15725,13.0318,12.094,13.8907,1.03958
0.85,0.87391,1.16282,13.0231,12.0868,13.8769,1.04074
0.86,0.875967,1.16844,13.0143,12.0797,13.863,1.04184
0.87,0.877923,1.17421,13.0056,12.0725,13.849,1.04301
0.88,0.879779,1.18,12.9968,12.0652,13.8349,1.04414
0.89,0.88152,1.1859,12.988,12.0579,13.8208,1.0453
0.9,0.883089,1.19188,12.9792,12.0506,13.8066,1.04645
0.91,0.88464,1.19796,12.9703,12.0433,13.7923,1.0476
0.92,0.886053,1.20413,12.9615,12.036,13.7779,1.04876
0.93,0.887373,1.21039,12.9526,12.0287,13.7635,1.04992
0.94,0.88856,1.21676,12.9437,12.0213,13.749,1.05111
0.95,0.889597,1.22322,12.9349,12.014,13.7345,1.05229
0.96,0.890644,1.22977,12.926,12.0066,13.7199,1.05349
0.97,0.891623,1.23631,12.9171,11.9992,13.7053,1.05468
0.98,0.892514,1.24284,12.9081,11.9917,13.6908,1.0559
0.99,0.893351,1.24931,12.8992,11.9842,13.6765,1.05709
1,0.894135,1.25577,12.8903,11.9768,13.6623,1.05832
1.01,0.894767,1.26206,12.8813,11.9694,13.6484,1.0595
1.02,0.895302,1.26836,12.8724,11.9619,13.6346,1.06075
1.03,0.895809,1.2745,12.8634,11.9545,13.6209,1.06193
1.04,0.896261,1.28062,12.8545,11.947,13.6074,1.06317
1.05,0.896653,1.28654,12.8455,11.9395,13.5941,1.06434
1.06,0.897059,1.29244,12.8366,11.932,13.5809,1.06558
1.07,0.897361,1.29823,12.8276,11.9245,13.5679,1.06676
1.08,0.897648,1.30403,12.8186,11.917,13.555,1.06801
1.09,0.897826,1.30969,12.8096,11.9094,13.5422,1.06921
1.1,0.897993,1.31535,12.8007,11.9019,13.5295,1.07045
1.11,0.898125,1.32091,12.7917,11.8944,13.517,1.07165
1.12,0.89819,1.32647,12.7827,11.8869,13.5046,1.07289
1.13,0.898317,1.33191,12.7737,11.8793,13.4922,1.07411
1.14,0.89815,1.33724,12.7648,11.8717,13.48,1.07533
1.15,0.898164,1.34255,12.7558,11.8641,13.4679,1.07655
1.16,0.898141,1.34783,12.7468,11.8566,13.4559,1.07776
1.17,0.898033,1.35303,12.7378,11.849,13.4439,1.07898
1.18,0.897921,1.35818,12.7289,11.8415,13.4321,1.08018
1.19,0.897789,1.36332,12.7199,11.8339,13.4203,1.0814
1.2,0.897635,1.36837,12.7109,11.8263,13.4086,1.08261
1.21,0.8975,1.37342,12.7019,11.8187,13.397,1.08384
1.22,0.897361,1.37831,12.693,11.811,13.3855,1.08504
1.23,0.897186,1.38323,12.684,11.8034,13.374,1.08628
1.24,0.896962,1.38805,12.675,11.7957,13.3627,1.08747
1.25,0.896699,1.39293,12.6661,11.7881,13.3513,1.08871
1.26,0.896466,1.39765,12.6571,11.7805,13.3401,1.08989
1.27,0.896182,1.40247,12.6481,11.7728,13.3289,1.09114
1.28,0.895867,1.4071,12.6392,11.7652,13.3178,1.0923
1.29,0.895601,1.41183,12.6302,11.7576,13.3067,1.09354
1.3,0.89528,1.41635,12.6213,11.7499,13.2957,1.09469
1.31,0.894949,1.4209,12.6123,11.7421,13.2847,1.09591
1.32,0.894732,1.42541,12.6034,11.7345,13.2738,1.09707
1.33,0.894413,1.42991,12.5945,11.7268,13.263,1.09829
1.34,0.894146,1.43437,12.5855,11.7191,13.2521,1.09945
1.35,0.89384,1.43882,12.5766,11.7115,13.2414,1.10067
1.36,0.893525,1.4432,12.5676,11.7038,13.2307,1.10183
1.37,0.893198,1.44763,12.5587,11.6961,13.22,1.10303
1.38,0.892866,1.45187,12.5498,11.6884,13.2094,1.1042
1.39,0.892536,1.45612,12.5409,11.6806,13.1989,1.10538
1.4,0.892149,1.4604,12.5319,11.6729,13.1883,1.10655
1.41,0.891824,1.46458,12.523,11.6652,13.1778,1.10772
1.42,0.891485,1.46877,12.5141,11.6574,13.1674,1.10888
1.43,0.891176,1.47295,12.5052,11.6497,13.1569,1.11003
1.44,0.890828,1.47704,12.4963,11.642,13.1466,1.11117
1.45,0.890509,1.48113,12.4874,11.6343,13.1363,1.11232
1.46,0.8902,1.48521,12.4785,11.6265,13.1259,1.11347
1.47,0.889861,1.4892,12.4696,11.6187,13.1157,1.11462
1.48,0.889487,1.49321,12.4607,11.611,13.1054,1.11578
1.49,0.889153,1.49722,12.4518,11.6032,13.0952,1.11693
1.5,0.888837,1.50126,12.4429,11.5954,13.085,1.11809
1.51,0.888528,1.50516,12.4341,11.5877,13.0749,1.11924
1.52,0.888167,1.50911,12.4252,11.5799,13.0648,1.1204
1.53,0.888008,1.51304,12.4163,11.5722,13.0547,1.12154
1.54,0.887642,1.51694,12.4074,11.5644,13.0446,1.1227
1.55,0.887316,1.52067,12.3986,11.5565,13.0346,1.12382
1.56,0.886943,1.52451,12.3897,11.5487,13.0246,1.12498
1.57,0.88669,1.52829,12.3808,11.5409,13.0145,1.12608
1.58,0.886364,1.53207,12.372,11.5331,13.0046,1.12722
1.59,0.886068,1.53575,12.3631,11.5253,12.9947,1.12831
1.6,0.885665,1.53954,12.3542,11.5175,12.9847,1.12945
1.61,0.885326,1.54327,12.3454,11.5097,12.9748,1.13054
1.62,0.885031,1.54697,12.3366,11.5018,12.9649,1.13168
1.63,0.884686,1.55047,12.3277,11.4939,12.9551,1.13276
1.64,0.884362,1.55413,12.3189,11.4861,12.9453,1.1339
1.65,0.884097,1.55776,12.31,11.4782,12.9354,1.13497
1.66,0.88383,1.56149,12.3012,11.4704,12.9256,1.13611
1.67,0.88347,1.565,12.2924,11.4626,12.9158,1.13716
1.68,0.883179,1.56865,12.2835,11.4548,12.9061,1.1383
1.69,0.882905,1.57219,12.2747,11.4469,12.8963,1.13936
1.7,0.882613,1.57583,12.2659,11.4391,12.8865,1.14048
1.71,0.882355,1.57925,12.2571,11.4312,12.8768,1.14152
1.72,0.882092,1.58276,12.2482,11.4233,12.8672,1.14263
1.73,0.881956,1.58622,12.2394,11.4155,12.8575,1.14368
1.74,0.881757,1.58979,12.2306,11.4076,12.8478,1.14479
1.75,0.881486,1.59328,12.2218,11.3997,12.8381,1.14584
1.76,0.881333,1.59679,12.213,11.3919,12.8285,1.14696
1.77,0.881112,1.60019,12.2042,11.384,12.8188,1.148
1.78,0.880842,1.60368,12.1954,11.3761,12.8092,1.14911
1.79,0.880607,1.60704,12.1866,11.3682,12.7996,1.15015
1.8,0.880353,1.61058,12.1778,11.3603,12.7899,1.15125
1.81,0.88013,1.61392,12.169,11.3524,12.7803,1.15229
1.82,0.879895,1.61732,12.1602,11.3445,12.7708,1.15338
1.83,0.879615,1.62067,12.1514,11.3366,12.7612,1.15442
1.84,0.879444,1.62412,12.1426,11.3287,12.7517,1.1555
1.85,0.879189,1.62749,12.1338,11.3208,12.7421,1.15652
1.86,0.878956,1.63086,12.125,11.3129,12.7325,1.15758
1.87,0.878698,1.63403,12.1162,11.3049,12.723,1.15859
1.88,0.878518,1.63734,12.1075,11.297,12.7135,1.15966
1.89,0.878327,1.6406,12.0987,11.2891,12.704,1.16067
1.9,0.878164,1.64396,12.0899,11.2811,12.6945,1.16173
1.91,0.877925,1.64728,12.0811,11.2732,12.6849,1.16274
1.92,0.877715,1.6506,12.0723,11.2653,12.6755,1.16381
1.93,0.877493,1.65381,12.0636,11.2574,12.666,1.16481
1.94,0.877237,1.65705,12.0548,11.2494,12.6565,1.16587
1.95,0.877091,1.66019,12.046,11.2414,12.6471,1.16687
1.96,0.876897,1.66351,12.0373,11.2334,12.6376,1.16792
1.97,0.876704,1.66676,12.0285,11.2255,12.6281,1.16891
1.98,0.876482,1.66998,12.0197,11.2175,12.6187,1.16994
1.99,0.876285,1.67316,12.011,11.2096,12.6093,1.17093
2,0.876128,1.67641,12.0022,11.2017,12.5999,1.17196
2.01,0.875955,1.67955,11.9935,11.1937,12.5904,1.17292
2.02,0.875809,1.68273,11.9847,11.1857,12.581,1.17393
2.03,0.875672,1.68589,11.976,11.1777,12.5715,1.17489
2.04,0.875484,1.68906,11.9672,11.1697,12.5621,1.17591
2.05,0.875292,1.69213,11.9585,11.1618,12.5528,1.17687
2.06,0.875091,1.69535,11.9497,11.1538,12.5434,1.17789
2.07,0.87495,1.69845,11.941,11.1458,12.534,1.17885
2.08,0.874801,1.7017,11.9322,11.1379,12.5246,1.17986
2.09,0.874667,1.70483,11.9235,11.1299,12.5151,1.18082
2.1,0.874529,1.70795,11.9147,11.1218,12.5057,1.18183
2.11,0.874361,1.71092,11.906,11.1138,12.4964,1.18277
2.12,0.874204,1.71407,11.8973,11.1058,12.4871,1.18378
2.13,0.874003,1.71711,11.8885,11.0978,12.4777,1.18471
2.14,0.874022,1.72028,11.8798,11.0898,12.4683,1.1857
2.15,0.873905,1.72333,11.8711,11.0818,12.4589,1.18663
2.16,0.873762,1.72654,11.8623,11.0738,12.4495,1.18761
2.17,0.873673,1.72951,11.8536,11.0658,12.4402,1.18851
2.18,0.873528,1.73249,11.8449,11.0577,12.4309,1.18947
2.19,0.87336,1.73543,11.8361,11.0497,12.4215,1.19037
2.2,0.873246,1.73849,11.8274,11.0417,12.4122,1.19133
2.21,0.873118,1.74145,11.8187,11.0336,12.4029,1.19223
2.22,0.873049,1.74457,11.8099,11.0256,12.3935,1.1932
2.23,0.872939,1.74758,11.8012,11.0176,12.3841,1.19409
2.24,0.87285,1.75075,11.7925,11.0096,12.3748,1.19506
2.25,0.872693,1.75359,11.7838,11.0015,12.3655,1.19594
2.26,0.872484,1.75659,11.775,10.9934,12.3562,1.19691
2.27,0.87236,1.75948,11.7663,10.9854,12.3469,1.19778
2.28,0.872222,1.76255,11.7576,10.9774,12.3376,1.19874
2.29,0.872083,1.7655,11.7489,10.9693,12.3283,1.19961
2.3,0.871977,1.76861,11.7402,10.9613,12.3189,1.20056
2.31,0.871815,1.77162,11.7315,10.9533,12.3096,1.20141
2.32,0.871702,1.77467,11.7227,10.9452,12.3002,1.20236
2.33,0.871516,1.77751,11.714,10.9372,12.291,1.20321
2.34,0.871407,1.78043,11.7053,10.9291,12.2817,1.20412
2.35,0.871297,1.78327,11.6966,10.921,12.2724,1.20496
2.36,0.871298,1.78628,11.6879,10.913,12.2631,1.20588
2.37,0.871203,1.78919,11.6792,10.9049,12.2538,1.20672
2.38,0.871125,1.79223,11.6705,10.8968,12.2445,1.20763
2.39,0.871014,1.79525,11.6618,10.8888,12.2351,1.20848
2.4,0.870885,1.79819,11.6531,10.8807,12.2258,1.20938
2.41,0.870791,1.80097,11.6444,10.8726,12.2166,1.21023
2.42,0.870669,1.80382,11.6357,10.8645,12.2073,1.21112
2.43,0.870574,1.8067,11.627,10.8564,12.1981,1.21197
2.44,0.870446,1.80966,11.6183,10.8484,12.1888,1.21285
2.45,0.870334,1.81257,11.6096,10.8403,12.1795,1.21369
2.46,0.8702,1.81558,11.6009,10.8322,12.1701,1.21456
2.47,0.8701,1.81851,11.5922,10.8241,12.1608,1.21539
2.48,0.870056,1.82142,11.5835,10.816,12.1515,1.21624
2.49,0.869924,1.82416,11.5748,10.8079,12.1423,1.21707
2.5,0.869792,1.82695,11.5661,10.7998,12.1331,1.21791
2.51,0.869636,1.82977,11.5574,10.7917,12.1238,1.21873
2.52,0.869555,1.83259,11.5487,10.7836,12.1145,1.21955
2.53,0.869468,1.83544,11.54,10.7755,12.1052,1.22036
2.54,0.869403,1.83829,11.5313,10.7674,12.096,1.22116
2.55,0.869327,1.84117,11.5226,10.7593,12.0867,1.22198
2.56,0.869302,1.84399,11.5139,10.7512,12.0774,1.22277
2.57,0.869204,1.8468,11.5053,10.743,12.0681,1.2236
2.58,0.869082,1.84954,11.4966,10.7349,12.0588,1.22438
2.59,0.868971,1.85237,11.4879,10.7267,12.0496,1.22521
2.6,0.868798,1.85512,11.4792,10.7186,12.0404,1.22597
2.61,0.868806,1.85799,11.4705,10.7105,12.0311,1.22681
2.62,0.868752,1.86074,11.4618,10.7024,12.0219,1.22756
2.63,0.868681,1.86363,11.4531,10.6943,12.0126,1.2284
2.64,0.868601,1.86635,11.4445,10.6862,12.0033,1.22914
2.65,0.868557,1.8692,11.4358,10.678,11.994,1.22997
2.66,0.868473,1.872,11.4271,10.6699,11.9847,1.23069
2.67,0.868349,1.87489,11.4184,10.6617,11.9754,1.23151
2.68,0.868324,1.87756,11.4097,10.6536,11.9662,1.23223
2.69,0.868257,1.88033,11.4011,10.6455,11.957,1.23304
2.7,0.868099,1.88304,11.3924,10.6374,11.9477,1.23375
2.71,0.867965,1.88582,11.3837,10.6292,11.9385,1.23453
2.72,0.867853,1.88842,11.375,10.621,11.9292,1.23523
2.73,0.867738,1.89118,11.3664,10.6129,11.92,1.236
2.74,0.86764,1.89388,11.3577,10.6047,11.9107,1.2367
2.75,0.86755,1.89664,11.349,10.5966,11.9015,1.23745
2.76,0.867466,1.89941,11.3403,10.5884,11.8922,1.23817
2.77,0.867395,1.90217,11.3317,10.5803,11.8829,1.2389
2.78,0.867268,1.90501,11.323,10.5722,11.8736,1.23963
2.79,0.867227,1.90762,11.3143,10.564,11.8644,1.24033
2.8,0.867125,1.91029,11.3057,10.5558,11.8552,1.24107
2.81,0.867079,1.91288,11.297,10.5476,11.8459,1.24176
2.82,0.866956,1.91558,11.2883,10.5395,11.8367,1.2425
2.83,0.866911,1.91819,11.2797,10.5313,11.8275,1.24317
2.84,0.866786,1.92092,11.271,10.5231,11.8183,1.24391
2.85,0.866627,1.92356,11.2623,10.515,11.809,1.24456
2.86,0.866525,1.92636,11.2537,10.5068,11.7997,1.2453
2.87,0.866399,1.92891,11.245,10.4986,11.7905,1.24595
2.88,0.866168,1.93157,11.2364,10.4904,11.7812,1.24667
2.89,0.866165,1.93413,11.2277,10.4822,11.772,1.24732
2.9,0.866036,1.93688,11.2191,10.474,11.7627,1.24803
2.91,0.865966,1.93942,11.2104,10.4659,11.7535,1.24867
2.92,0.865833,1.94206,11.2017,10.4577,11.7443,1.24935
2.93,0.865714,1.94469,11.1931,10.4495,11.7351,1.25001
2.94,0.865634,1.94722,11.1844,10.4414,11.7259,1.25066
2.95,0.865578,1.94972,11.1758,10.4331,11.7167,1.2513
2.96,0.865595,1.95224,11.1671,10.4249,11.7075,1.25194
2.97,0.865494,1.95483,11.1585,10.4168,11.6983,1.25259
2.98,0.865496,1.9574,11.1498,10.4086,11.6891,1.25322
2.99,0.865387,1.96003,11.1412,10.4004,11.6798,1.25388
3,0.865269,1.96265,11.1325,10.3922,11.6706,1.25449
3.01,0.865106,1.96532,11.1239,10.384,11.6614,1.25517
3.02,0.865085,1.96781,11.1152,10.3758,11.6521,1.25575
3.03,0.865027,1.9704,11.1066,10.3676,11.6429,1.25644
3.04,0.864952,1.97293,11.0979,10.3594,11.6337,1.25704
3.05,0.864796,1.97553,11.0893,10.3512,11.6245,1.25771
3.06,0.864767,1.97803,11.0807,10.343,11.6153,1.25831
3.07,0.864645,1.98061,11.072,10.3348,11.6061,1.25896
3.08,0.864531,1.98313,11.0634,10.3266,11.5969,1.25957
3.09,0.864488,1.98565,11.0547,10.3184,11.5877,1.2602
3.1,0.864429,1.98812,11.0461,10.3102,11.5785,1.2608
3.11,0.864329,1.99057,11.0375,10.3019,11.5693,1.26141
3.12,0.864247,1.99312,11.0288,10.2937,11.5601,1.26201
3.13,0.864161,1.99558,11.0202,10.2855,11.5509,1.2626
3.14,0.86403,1.99812,11.0115,10.2773,11.5417,1.2632
3.15,0.863942,2.0006,11.0029,10.2691,11.5325,1.26377
3.16,0.86379,2.00316,10.9943,10.2609,11.5233,1.26438
3.17,0.863755,2.00558,10.9856,10.2526,11.5141,1.26492
3.18,0.863645,2.00802,10.977,10.2444,11.5048,1.26553
3.19,0.863541,2.01039,10.9684,10.2361,11.4956,1.26605
3.2,0.863422,2.01296,10.9597,10.2279,11.4864,1.26665
3.21,0.863282,2.01527,10.9511,10.2197,11.4772,1.26716
3.22,0.863246,2.01774,10.9425,10.2115,11.4681,1.26775
3.23,0.863191,2.02006,10.9339,10.2032,11.4589,1.26827
3.24,0.863123,2.02249,10.9252,10.195,11.4498,1.26884
3.25,0.863057,2.02482,10.9166,10.1868,11.4406,1.26939
3.26,0.863015,2.02715,10.908,10.1785,11.4314,1.26993
3.27,0.862924,2.02959,10.8993,10.1703,11.4222,1.27049
3.28,0.862786,2.0319,10.8907,10.162,11.4131,1.271
3.29,0.862733,2.03434,10.8821,10.1538,11.4039,1.27159
3.3,0.862684,2.03661,10.8735,10.1456,11.3948,1.27207
3.31,0.862638,2.0391,10.8649,10.1373,11.3856,1.27267
3.32,0.862633,2.0414,10.8562,10.1291,11.3764,1.27317
3.33,0.862643,2.04373,10.8476,10.1208,11.3673,1.27374
3.34,0.862496,2.04604,10.839,10.1125,11.3581,1.27424
3.35,0.862438,2.0484,10.8304,10.1043,11.349,1.27479
3.36,0.862406,2.05072,10.8217,10.096,11.3398,1.27529
3.37,0.862343,2.05305,10.8131,10.0878,11.3307,1.27582
3.38,0.862324,2.05538,10.8045,10.0796,11.3215,1.27633
3.39,0.862227,2.0577,10.7959,10.0713,11.3123,1.27682
3.4,0.862126,2.05999,10.7873,10.063,11.3032,1.27734
3.41,0.861995,2.06217,10.7787,10.0547,11.294,1.27781
3.42,0.861946,2.0644,10.77,10.0465,11.2849,1.27833
3.43,0.861858,2.06651,10.7614,10.0382,11.2758,1.27878
3.44,0.861764,2.06877,10.7528,10.03,11.2667,1.2793
3.45,0.861658,2.07087,10.7442,10.0217,11.2576,1.27972
3.46,0.861692,2.07322,10.7356,10.0135,11.2485,1.28025
3.47,0.861562,2.07531,10.727,10.0052,11.2394,1.28066
3.48,0.861499,2.07751,10.7184,9.99686,11.2302,1.28117
3.49,0.861435,2.0795,10.7097,9.98855,11.2211,1.28159
3.5,0.861335,2.08168,10.7011,9.98028,11.212,1.28206
3.51,0.861219,2.08379,10.6925,9.97202,11.2029,1.28249
3.52,0.861128,2.08595,10.6839,9.96377,11.1938,1.28293
3.53,0.860934,2.08816,10.6753,9.95552,11.1847,1.28338
3.54,0.860878,2.09031,10.6667,9.94728,11.1756,1.28379
3.55,0.86082,2.0925,10.6581,9.939,11.1665,1.28427
3.56,0.860778,2.09449,10.6495,9.93071,11.1574,1.28466
3.57,0.86074,2.09668,10.6409,9.92243,11.1483,1.28516
3.58,0.86066,2.09877,10.6323,9.91417,11.1392,1.28557
3.59,0.860669,2.10091,10.6237,9.9059,11.1302,1.28603
3.6,0.860633,2.10305,10.6151,9.89764,11.1211,1.28646
3.61,0.860537,2.10521,10.6065,9.88939,11.112,1.28689
3.62,0.860471,2.10735,10.5979,9.88112,11.1029,1.28734
3.63,0.860418,2.10931,10.5893,9.8728,11.0938,1.28775
3.64,0.860323,2.11137,10.5807,9.8645,11.0848,1.28821
3.65,0.860221,2.11336,10.5721,9.85622,11.0757,1.28859
3.66,0.860151,2.11552,10.5635,9.84795,11.0666,1.28907
3.67,0.860052,2.11751,10.5549,9.83968,11.0576,1.28944
3.68,0.85997,2.11969,10.5463,9.83141,11.0485,1.28991
3.69,0.859886,2.12168,10.5377,9.82314,11.0394,1.29029
3.7,0.859836,2.12369,10.5291,9.81484,11.0304,1.29073
3.71,0.859819,2.12553,10.5205,9.80651,11.0214,1.29112
3.72,0.859725,2.12751,10.5119,9.79821,11.0123,1.29153
3.73,0.859636,2.12943,10.5033,9.78991,11.0033,1.29193
3.74,0.859558,2.13138,10.4947,9.78162,10.9943,1.29232
