time,velocity,ratio,centerX,Xmax,Xmin,Ymax
0,0,1,41,40,42,1
0.01,0.0197134,1,40.9999,39.9999,41.9999,1
0.02,0.039119,1.00001,40.9996,39.9996,41.9996,1
0.03,0.0582158,1.00001,40.9991,39.9991,41.9991,1
0.04,0.0770502,1.00002,40.9985,39.9985,41.9984,1
0.05,0.0956263,1.00003,40.9976,39.9976,41.9976,0.999999
0.06,0.113842,1.00003,40.9966,39.9966,41.9965,0.999998
0.07,0.131799,1.00005,40.9953,39.9954,41.9953,0.999997
0.08,0.149482,1.00006,40.9939,39.994,41.9939,0.999995
0.09,0.166911,1.00007,40.9924,39.9924,41.9923,0.999991
0.1,0.184134,1.00011,40.9906,39.9907,41.9905,1.00001
0.11,0.201124,1.00015,40.9887,39.9888,41.9886,1.00004
0.12,0.217887,1.0002,40.9866,39.9868,41.9865,1.00007
0.13,0.234392,1.00025,40.9844,39.9846,41.9842,1.00009
0.14,0.250643,1.0003,40.9819,39.9822,41.9818,1.0001
0.15,0.266725,1.00037,40.9794,39.9797,41.9792,1.00013
0.16,0.282558,1.00047,40.9766,39.977,41.9764,1.00015
0.17,0.298182,1.00061,40.9737,39.9742,41.9734,1.0002
0.18,0.313569,1.00078,40.9707,39.9713,41.9702,1.00026
0.19,0.328777,1.00096,40.9675,39.9682,41.9669,1.00032
0.2,0.343767,1.00117,40.9641,39.965,41.9634,1.00038
0.21,0.358517,1.0014,40.9606,39.9616,41.9597,1.00043
0.22,0.373091,1.0017,40.9569,39.9581,41.9558,1.00053
0.23,0.387443,1.002,40.9531,39.9545,41.9518,1.00064
0.24,0.40157,1.00234,40.9492,39.9508,41.9476,1.00074
0.25,0.41533,1.00268,40.9451,39.9469,41.9432,1.00083
0.26,0.429057,1.0031,40.9409,39.9429,41.9387,1.00098
0.27,0.44274,1.00353,40.9366,39.9388,41.934,1.00112
0.28,0.456065,1.00403,40.9321,39.9346,41.9291,1.00126
0.29,0.469188,1.00455,40.9274,39.9303,41.9241,1.00142
0.3,0.482087,1.0051,40.9227,39.9259,41.919,1.00162
0.31,0.494826,1.00569,40.9178,39.9214,41.9137,1.00182
0.32,0.507309,1.00633,40.9128,39.9168,41.9082,1.00201
0.33,0.51966,1.00704,40.9077,39.912,41.9025,1.00226
0.34,0.531773,1.00781,40.9024,39.9072,41.8967,1.0025
0.35,0.543726,1.00861,40.897,39.9023,41.8906,1.00273
0.36,0.555483,1.00948,40.8916,39.8973,41.8845,1.00303
0.37,0.566992,1.01042,40.8859,39.8922,41.8781,1.00332
0.38,0.578384,1.01136,40.8802,39.887,41.8717,1.00361
0.39,0.589481,1.01243,40.8744,39.8817,41.865,1.00395
0.4,0.600398,1.01348,40.8684,39.8764,41.8582,1.00428
0.41,0.611162,1.01452,40.8624,39.8709,41.8514,1.00463
0.42,0.621844,1.01571,40.8562,39.8654,41.8443,1.00502
0.43,0.632219,1.0169,40.85,39.8598,41.8372,1.00538
0.44,0.642312,1.01823,40.8436,39.8541,41.8297,1.00581
0.45,0.652278,1.01956,40.8371,39.8484,41.8222,1.00623
0.46,0.662044,1.02099,40.8306,39.8425,41.8144,1.00665
0.47,0.671627,1.02244,40.8239,39.8366,41.8067,1.00712
0.48,0.681029,1.02398,40.8171,39.8306,41.7986,1.00756
0.49,0.690231,1.02552,40.8103,39.8246,41.7906,1.00807
0.5,0.699254,1.02709,40.8033,39.8185,41.7824,1.00856
0.51,0.707929,1.02872,40.7963,39.8123,41.7741,1.00907
0.52,0.716515,1.03047,40.7892,39.806,41.7655,1.00961
0.53,0.724995,1.0322,40.782,39.7997,41.7569,1.01014
0.54,0.733385,1.03408,40.7747,39.7933,41.7481,1.01072
0.55,0.741487,1.03592,40.7673,39.7868,41.7392,1.01127
0.56,0.749365,1.0379,40.7599,39.7803,41.7302,1.01188
0.57,0.757151,1.03976,40.7523,39.7737,41.7212,1.01247
0.58,0.76477,1.04177,40.7447,39.7671,41.7121,1.0131
0.59,0.772195,1.04385,40.737,39.7604,41.7027,1.01371
0.6,0.779433,1.04593,40.7293,39.7537,41.6933,1.01436
0.61,0.786464,1.0481,40.7215,39.7469,41.6837,1.01501
0.62,0.793379,1.05031,40.7136,39.74,41.6741,1.01567
0.63,0.800171,1.05255,40.7056,39.7332,41.6644,1.01634
0.64,0.806846,1.05479,40.6976,39.7262,41.6546,1.01702
0.65,0.813352,1.05707,40.6895,39.7192,41.6448,1.01772
0.66,0.819725,1.05943,40.6813,39.7122,41.6347,1.01842
0.67,0.825712,1.06183,40.6731,39.7051,41.6247,1.01915
0.68,0.831855,1.06425,40.6648,39.6979,41.6145,1.01986
0.69,0.837761,1.06673,40.6564,39.6907,41.6042,1.0206
0.7,0.843583,1.0691,40.648,39.6834,41.5941,1.02134
0.71,0.849323,1.07156,40.6396,39.6761,41.5838,1.0221
0.72,0.854902,1.07409,40.6311,39.6687,41.5733,1.02285
0.73,0.86024,1.07662,40.6225,39.6613,41.5629,1.02361
0.74,0.865568,1.07919,40.6139,39.6539,41.5523,1.02438
0.75,0.87077,1.08181,40.6052,39.6464,41.5416,1.02515
0.76,0.875842,1.08436,40.5964,39.6389,41.5311,1.02594
0.77,0.880812,1.08694,40.5877,39.6313,41.5205,1.02672
0.78,0.885721,1.08956,40.5788,39.6236,41.5097,1.02752
0.79,0.89046,1.09217,40.57,39.616,41.499,1.02829
0.8,0.895252,1.09486,40.561,39.6083,41.4882,1.02911
0.81,0.899815,1.09751,40.5521,39.6005,41.4773,1.02988
0.82,0.904324,1.10014,40.543,39.5927,41.4665,1.03071
0.83,0.908741,1.10271,40.534,39.5849,41.4557,1.03149
0.84,0.912955,1.1054,40.5249,39.577,41.4448,1.03231
0.85,0.917149,1.10804,40.5157,39.5691,41.4338,1.0331
0.86,0.921324,1.11068,40.5065,39.5611,41.4228,1.03391
0.87,0.925382,1.11334,40.4973,39.553,41.4118,1.03473
0.88,0.929447,1.11591,40.488,39.545,41.4009,1.03552
0.89,0.933336,1.11852,40.4787,39.5369,41.3899,1.03635
0.9,0.93724,1.1211,40.4694,39.5287,41.3789,1.03713
0.91,0.941037,1.12374,40.46,39.5205,41.3679,1.03796
0.92,0.944681,1.12636,40.4505,39.5123,41.3568,1.03875
0.93,0.948203,1.1289,40.4411,39.5041,41.3458,1.03956
0.94,0.951758,1.13141,40.4316,39.4957,41.3348,1.04037
0.95,0.955276,1.13391,40.422,39.4874,41.3237,1.04113
0.96,0.958582,1.1365,40.4125,39.479,41.3127,1.04196
0.97,0.961964,1.13903,40.4029,39.4707,41.3016,1.04273
0.98,0.965312,1.1416,40.3932,39.4622,41.2904,1.04353
0.99,0.968564,1.14408,40.3836,39.4538,41.2794,1.04432
1,0.971845,1.14652,40.3739,39.4453,41.2683,1.04507
1.01,0.975066,1.14902,40.3641,39.4367,41.2572,1.04588
1.02,0.978165,1.15145,40.3544,39.4282,41.2461,1.04663
1.03,0.981355,1.15388,40.3446,39.4196,41.235,1.0474
1.04,0.98435,1.15631,40.3348,39.4109,41.2238,1.04816
1.05,0.987337,1.15862,40.3249,39.4022,41.2128,1.04889
1.06,0.990248,1.16097,40.315,39.3935,41.2018,1.04966
1.07,0.993133,1.16333,40.3051,39.3848,41.1906,1.0504
1.08,0.996055,1.16562,40.2951,39.376,41.1795,1.05111
1.09,0.998836,1.16796,40.2852,39.3672,41.1684,1.05187
1.1,1.00165,1.17022,40.2752,39.3583,41.1573,1.05258
1.11,1.00438,1.17242,40.2651,39.3495,41.1462,1.05327
1.12,1.00694,1.17466,40.2551,39.3406,41.1351,1.054
1.13,1.00961,1.17684,40.245,39.3316,41.124,1.05469
1.14,1.01231,1.17904,40.2349,39.3227,41.1129,1.05538
1.15,1.01493,1.18121,40.2248,39.3136,41.1017,1.05607
1.16,1.01764,1.18323,40.2146,39.3045,41.0907,1.05672
1.17,1.02024,1.18528,40.2044,39.2955,41.0797,1.05739
1.18,1.02281,1.18733,40.1942,39.2863,41.0685,1.05806
1.19,1.02533,1.18932,40.184,39.2771,41.0574,1.05867
1.2,1.02794,1.19133,40.1737,39.2679,41.0463,1.05931
1.21,1.0304,1.19334,40.1634,39.2587,41.0351,1.05995
1.22,1.03275,1.1952,40.1531,39.2494,41.0241,1.06054
1.23,1.03523,1.1971,40.1428,39.2401,41.013,1.06115
1.24,1.03763,1.19901,40.1324,39.2308,41.0019,1.06176
1.25,1.04003,1.20088,40.122,39.2214,40.9907,1.06232
1.26,1.04235,1.20274,40.1116,39.2121,40.9795,1.06289
1.27,1.04464,1.20454,40.1012,39.2027,40.9684,1.06347
1.28,1.04695,1.20625,40.0907,39.1932,40.9573,1.064
1.29,1.04935,1.20794,40.0802,39.1837,40.9462,1.06453
1.3,1.05167,1.20967,40.0697,39.1741,40.9351,1.06509
1.31,1.05397,1.21136,40.0592,39.1646,40.9239,1.06561
1.32,1.05635,1.21299,40.0486,39.155,40.9127,1.06609
1.33,1.05857,1.21462,40.0381,39.1453,40.9016,1.06663
1.34,1.06077,1.21621,40.0275,39.1357,40.8905,1.06713
1.35,1.06302,1.21773,40.0169,39.1259,40.8793,1.06759
1.36,1.06522,1.21929,40.0062,39.1162,40.8682,1.06808
1.37,1.06742,1.22085,39.9956,39.1064,40.8569,1.06856
1.38,1.06955,1.22232,39.9849,39.0966,40.8458,1.069
1.39,1.07171,1.22374,39.9742,39.0868,40.8346,1.06944
1.4,1.07384,1.22518,39.9634,39.0769,40.8235,1.0699
1.41,1.07602,1.22657,39.9527,39.067,40.8123,1.07032
1.42,1.07819,1.22791,39.9419,39.0571,40.801,1.0707
1.43,1.08027,1.22932,39.9311,39.0471,40.7897,1.07114
1.44,1.08238,1.23062,39.9203,39.0371,40.7785,1.07155
1.45,1.0845,1.23186,39.9095,39.027,40.7673,1.07191
1.46,1.08658,1.23314,39.8986,39.017,40.7561,1.0723
1.47,1.08865,1.23442,39.8878,39.0069,40.7448,1.07269
1.48,1.09065,1.23562,39.8769,38.9967,40.7335,1.07304
1.49,1.09271,1.2368,39.8659,38.9865,40.7222,1.07337
1.5,1.09464,1.23799,39.855,38.9763,40.711,1.07375
1.51,1.0968,1.23913,39.8441,38.9661,40.6998,1.07409
1.52,1.09875,1.24024,39.8331,38.9559,40.6884,1.0744
1.53,1.10075,1.24138,39.8221,38.9456,40.6771,1.07472
1.54,1.10275,1.24248,39.8111,38.9352,40.6657,1.07506
1.55,1.10467,1.24351,39.8,38.9249,40.6544,1.07536
1.56,1.10674,1.24449,39.789,38.9145,40.6431,1.07563
1.57,1.10881,1.24554,39.7779,38.9041,40.6317,1.07595
1.58,1.11089,1.24654,39.7668,38.8936,40.6204,1.07624
1.59,1.11286,1.24753,39.7557,38.8831,40.6089,1.07651
1.6,1.11475,1.24845,39.7445,38.8726,40.5975,1.07676
1.61,1.11668,1.24937,39.7334,38.862,40.5861,1.07705
1.62,1.11864,1.25027,39.7222,38.8514,40.5747,1.0773
1.63,1.12059,1.25115,39.711,38.8408,40.5633,1.07753
1.64,1.12247,1.25205,39.6998,38.8302,40.5518,1.07778
1.65,1.12438,1.25295,39.6886,38.8195,40.5403,1.07803
1.66,1.12633,1.25376,39.6773,38.8088,40.5288,1.07827
1.67,1.12823,1.25451,39.666,38.798,40.5173,1.07846
1.68,1.13013,1.25532,39.6548,38.7872,40.5058,1.07869
1.69,1.13207,1.25612,39.6434,38.7764,40.4943,1.07892
1.7,1.13385,1.2569,39.6321,38.7656,40.4827,1.07912
1.71,1.13569,1.25763,39.6208,38.7547,40.4711,1.0793
1.72,1.13749,1.25834,39.6094,38.7438,40.4596,1.07952
1.73,1.13936,1.25906,39.598,38.7329,40.448,1.07973
1.74,1.14119,1.25976,39.5866,38.722,40.4364,1.07991
1.75,1.14307,1.26044,39.5752,38.711,40.4248,1.08007
1.76,1.1448,1.26119,39.5638,38.7,40.4131,1.08028
1.77,1.14664,1.26185,39.5523,38.689,40.4015,1.08047
1.78,1.14845,1.26245,39.5408,38.6779,40.3898,1.08064
1.79,1.15025,1.26306,39.5293,38.6668,40.3782,1.08078
1.8,1.15203,1.26373,39.5178,38.6557,40.3664,1.08098
1.81,1.15378,1.26437,39.5063,38.6445,40.3547,1.08116
1.82,1.15559,1.26497,39.4948,38.6334,40.343,1.08131
1.83,1.15726,1.26547,39.4832,38.6221,40.3313,1.08144
1.84,1.15899,1.26607,39.4716,38.6109,40.3195,1.08163
1.85,1.16072,1.26667,39.46,38.5997,40.3078,1.08179
1.86,1.16238,1.26724,39.4484,38.5884,40.296,1.08192
1.87,1.16408,1.26779,39.4368,38.5771,40.2841,1.08204
1.88,1.16575,1.26835,39.4251,38.5658,40.2723,1.08223
1.89,1.16746,1.26886,39.4135,38.5545,40.2605,1.08238
1.9,1.16916,1.26937,39.4018,38.5431,40.2487,1.08251
1.91,1.17089,1.26987,39.3901,38.5317,40.2368,1.08262
1.92,1.1725,1.27044,39.3784,38.5203,40.2249,1.08279
1.93,1.17408,1.27094,39.3666,38.5088,40.213,1.08294
1.94,1.17562,1.27137,39.3549,38.4973,40.2011,1.08307
1.95,1.17717,1.27182,39.3431,38.4859,40.1892,1.08317
1.96,1.17875,1.27237,39.3313,38.4744,40.1772,1.08333
1.97,1.18034,1.27289,39.3195,38.4629,40.1653,1.08347
1.98,1.18202,1.27337,39.3077,38.4514,40.1533,1.0836
1.99,1.18354,1.2738,39.2959,38.4398,40.1413,1.0837
2,1.18525,1.27426,39.2841,38.4282,40.1293,1.08385
2.01,1.18673,1.27475,39.2722,38.4166,40.1173,1.08399
2.02,1.18826,1.27523,39.2603,38.4049,40.1052,1.08412
2.03,1.18974,1.27567,39.2484,38.3933,40.0932,1.08422
2.04,1.19112,1.2761,39.2365,38.3816,40.0811,1.08435
2.05,1.19258,1.27654,39.2246,38.3699,40.0691,1.0845
2.06,1.19401,1.277,39.2127,38.3582,40.0569,1.08462
2.07,1.19545,1.27746,39.2007,38.3465,40.0448,1.08473
2.08,1.19682,1.27792,39.1888,38.3348,40.0326,1.08483
2.09,1.19817,1.2784,39.1768,38.3231,40.0205,1.08499
2.1,1.19955,1.27884,39.1648,38.3113,40.0084,1.08513
2.11,1.20104,1.27926,39.1528,38.2995,39.9962,1.08524
2.12,1.2025,1.2797,39.1408,38.2877,39.984,1.08533
2.13,1.20381,1.28018,39.1288,38.2759,39.9717,1.08547
2.14,1.20511,1.28062,39.1167,38.2641,39.9595,1.08561
2.15,1.20641,1.28103,39.1047,38.2522,39.9473,1.08573
2.16,1.20768,1.28142,39.0926,38.2403,39.9351,1.08583
2.17,1.20898,1.2819,39.0805,38.2285,39.9228,1.08595
2.18,1.2102,1.2824,39.0684,38.2166,39.9105,1.0861
2.19,1.21147,1.28285,39.0563,38.2047,39.8982,1.08623
2.2,1.2127,1.28328,39.0442,38.1928,39.8859,1.08634
2.21,1.21391,1.28367,39.0321,38.1809,39.8736,1.08643
2.22,1.21512,1.28417,39.0199,38.1689,39.8612,1.08658
2.23,1.21631,1.28464,39.0078,38.157,39.8488,1.08672
2.24,1.21745,1.28507,38.9956,38.145,39.8365,1.08684
2.25,1.21855,1.28548,38.9834,38.133,39.8242,1.08694
2.26,1.21966,1.2859,38.9712,38.121,39.8118,1.08706
2.27,1.22079,1.2864,38.959,38.109,39.7994,1.08721
2.28,1.22188,1.28689,38.9468,38.097,39.7869,1.08734
2.29,1.22293,1.28733,38.9346,38.085,39.7745,1.08745
2.3,1.224,1.28776,38.9224,38.073,39.7621,1.08755
2.31,1.22509,1.28823,38.9101,38.061,39.7496,1.08771
2.32,1.2262,1.28871,38.8979,38.0489,39.7372,1.08785
2.33,1.22725,1.28918,38.8856,38.0368,39.7247,1.08797
2.34,1.22822,1.2896,38.8733,38.0248,39.7122,1.08808
2.35,1.22916,1.29004,38.861,38.0127,39.6998,1.0882
2.36,1.2302,1.29051,38.8487,38.0006,39.6873,1.08835
2.37,1.23121,1.29099,38.8364,37.9884,39.6747,1.08849
2.38,1.23227,1.29148,38.8241,37.9764,39.6622,1.08861
2.39,1.23325,1.29191,38.8118,37.9642,39.6497,1.08872
2.4,1.23426,1.29238,38.7994,37.9521,39.6372,1.08885
2.41,1.23521,1.29287,38.7871,37.94,39.6246,1.08901
2.42,1.23609,1.29333,38.7747,37.9278,39.612,1.08914
2.43,1.23705,1.2938,38.7624,37.9156,39.5994,1.08926
2.44,1.2379,1.2942,38.75,37.9034,39.5869,1.08936
2.45,1.23886,1.29467,38.7376,37.8913,39.5743,1.08951
2.46,1.23975,1.29515,38.7252,37.8791,39.5617,1.08966
2.47,1.24058,1.2956,38.7128,37.8668,39.5491,1.08979
2.48,1.2414,1.29607,38.7004,37.8546,39.5365,1.0899
2.49,1.2422,1.2965,38.688,37.8424,39.5239,1.09
2.5,1.24301,1.29699,38.6756,37.8302,39.5113,1.09016
2.51,1.24385,1.29748,38.6631,37.818,39.4987,1.09031
2.52,1.24475,1.29793,38.6507,37.8057,39.486,1.09044
2.53,1.24557,1.29838,38.6383,37.7935,39.4733,1.09055
2.54,1.24629,1.29879,38.6258,37.7812,39.4607,1.09065
2.55,1.24703,1.29926,38.6133,37.769,39.4481,1.09081
2.56,1.24778,1.29973,38.6009,37.7567,39.4354,1.09095
2.57,1.24851,1.30017,38.5884,37.7444,39.4227,1.09108
2.58,1.24923,1.30063,38.5759,37.7321,39.41,1.09119
2.59,1.24995,1.30105,38.5634,37.7198,39.3974,1.09129
2.6,1.25063,1.30153,38.5509,37.7075,39.3847,1.09145
2.61,1.25135,1.30201,38.5384,37.6952,39.372,1.09159
2.62,1.25208,1.30246,38.5259,37.6829,39.3593,1.09172
2.63,1.25279,1.30289,38.5133,37.6706,39.3466,1.09182
2.64,1.25348,1.30328,38.5008,37.6582,39.3339,1.09193
2.65,1.25413,1.30373,38.4883,37.6459,39.3212,1.09208
2.66,1.2548,1.3042,38.4757,37.6336,39.3085,1.09222
2.67,1.25544,1.30462,38.4632,37.6212,39.2957,1.09234
2.68,1.25604,1.30505,38.4506,37.6088,39.283,1.09245
2.69,1.25668,1.30546,38.4381,37.5965,39.2703,1.09254
2.7,1.25731,1.30593,38.4255,37.5841,39.2575,1.09269
2.71,1.258,1.30639,38.4129,37.5717,39.2448,1.09283
2.72,1.25863,1.30682,38.4003,37.5593,39.232,1.09295
2.73,1.25927,1.30723,38.3877,37.5469,39.2193,1.09306
2.74,1.25985,1.30759,38.3751,37.5345,39.2065,1.09315
2.75,1.26043,1.30801,38.3625,37.5221,39.1938,1.09329
2.76,1.26106,1.30846,38.3499,37.5097,39.181,1.09342
2.77,1.2617,1.30887,38.3373,37.4973,39.1682,1.09354
2.78,1.26231,1.30927,38.3247,37.4848,39.1554,1.09365
2.79,1.26286,1.30964,38.3121,37.4724,39.1427,1.09374
2.8,1.26354,1.31005,38.2995,37.46,39.1299,1.09386
2.81,1.26408,1.31049,38.2868,37.4475,39.1171,1.09399
2.82,1.26468,1.31089,38.2742,37.4351,39.1043,1.09411
2.83,1.26526,1.31127,38.2615,37.4226,39.0915,1.09421
2.84,1.26579,1.3116,38.2489,37.4101,39.0788,1.0943
2.85,1.26635,1.31194,38.2362,37.3976,39.066,1.09439
2.86,1.26684,1.31236,38.2235,37.3852,39.0532,1.09452
2.87,1.2673,1.31274,38.2109,37.3726,39.0404,1.09464
2.88,1.26785,1.31311,38.1982,37.3601,39.0276,1.09474
2.89,1.2684,1.31345,38.1855,37.3477,39.0148,1.09483
2.9,1.26897,1.31377,38.1728,37.3352,39.002,1.0949
2.91,1.26962,1.31416,38.1601,37.3227,38.9892,1.09503
2.92,1.2701,1.31453,38.1474,37.3101,38.9763,1.09514
2.93,1.27064,1.31487,38.1347,37.2976,38.9635,1.09524
2.94,1.27105,1.31518,38.122,37.285,38.9507,1.09533
2.95,1.27167,1.31547,38.1093,37.2725,38.9379,1.0954
2.96,1.27219,1.31581,38.0966,37.2599,38.925,1.09549
2.97,1.27261,1.31615,38.0839,37.2473,38.9122,1.0956
2.98,1.27312,1.31649,38.0711,37.2348,38.8994,1.09571
2.99,1.27358,1.3168,38.0584,37.2222,38.8865,1.09579
3,1.27406,1.31711,38.0457,37.2097,38.8737,1.09587
3.01,1.27462,1.31741,38.0329,37.1971,38.8609,1.09593
3.02,1.27514,1.31774,38.0202,37.1845,38.848,1.09604
3.03,1.27564,1.31804,38.0074,37.1719,38.8352,1.09614
3.04,1.27607,1.31832,37.9947,37.1593,38.8223,1.09623
3.05,1.27668,1.3186,37.9819,37.1467,38.8095,1.09631
3.06,1.27717,1.31889,37.9691,37.1341,38.7966,1.09637
3.07,1.27756,1.31914,37.9564,37.1214,38.7838,1.09644
3.08,1.27804,1.31945,37.9436,37.1088,38.7709,1.09654
3.09,1.2785,1.31975,37.9308,37.0962,38.7581,1.09664
3.1,1.27902,1.32004,37.918,37.0836,38.7452,1.09671
3.11,1.27946,1.32032,37.9052,37.0709,38.7323,1.09678
3.12,1.27993,1.32055,37.8924,37.0583,38.7194,1.09683
3.13,1.28031,1.3208,37.8796,37.0456,38.7066,1.09691
3.14,1.2807,1.32106,37.8668,37.0329,38.6937,1.09701
3.15,1.28121,1.32133,37.854,37.0203,38.6809,1.09709
3.16,1.28164,1.32159,37.8412,37.0076,38.668,1.09716
3.17,1.2821,1.3218,37.8284,36.9949,38.6551,1.09721
3.18,1.28256,1.32201,37.8156,36.9822,38.6422,1.09725
3.19,1.28304,1.32229,37.8027,36.9696,38.6293,1.09735
3.2,1.2835,1.32256,37.7899,36.9569,38.6164,1.09743
3.21,1.28403,1.32283,37.7771,36.9442,38.6035,1.0975
3.22,1.2845,1.32304,37.7642,36.9315,38.5906,1.09756
3.23,1.28491,1.32322,37.7514,36.9187,38.5777,1.09761
3.24,1.28531,1.32341,37.7385,36.906,38.5648,1.09766
3.25,1.28582,1.32367,37.7257,36.8933,38.5519,1.09774
3.26,1.28613,1.32393,37.7128,36.8806,38.539,1.09782
3.27,1.28651,1.32414,37.7,36.8678,38.5261,1.09788
3.28,1.28692,1.32433,37.6871,36.8551,38.5132,1.09793
3.29,1.28741,1.32453,37.6742,36.8424,38.5003,1.09797
3.3,1.28787,1.32476,37.6614,36.8296,38.4873,1.09803
3.31,1.28829,1.32501,37.6485,36.8169,38.4744,1.09811
3.32,1.28865,1.32521,37.6356,36.8041,38.4614,1.09818
3.33,1.28902,1.32539,37.6227,36.7913,38.4485,1.09823
3.34,1.28942,1.32555,37.6098,36.7785,38.4356,1.09827
3.35,1.28988,1.32574,37.5969,36.7657,38.4226,1.0983
3.36,1.29017,1.32595,37.584,36.7529,38.4097,1.09836
3.37,1.29067,1.32614,37.5711,36.7401,38.3967,1.09844
3.38,1.29104,1.32633,37.5582,36.7273,38.3838,1.09849
3.39,1.29156,1.32652,37.5453,36.7145,38.3708,1.09854
3.4,1.29199,1.32672,37.5324,36.7017,38.3578,1.09857
3.41,1.2924,1.32687,37.5195,36.6889,38.3448,1.0986
3.42,1.29278,1.32704,37.5065,36.6761,38.3319,1.09866
3.43,1.29313,1.32722,37.4936,36.6632,38.3189,1.09873
3.44,1.29365,1.32739,37.4807,36.6504,38.306,1.09878
3.45,1.29397,1.32758,37.4677,36.6376,38.2929,1.09882
3.46,1.29434,1.32773,37.4548,36.6247,38.2799,1.09885
3.47,1.29475,1.32784,37.4418,36.6119,38.267,1.09887
3.48,1.29509,1.32805,37.4289,36.599,38.254,1.09894
3.49,1.29558,1.32824,37.4159,36.5862,38.241,1.099
3.5,1.29596,1.32844,37.403,36.5733,38.228,1.09905
3.51,1.29626,1.32858,37.39,36.5604,38.215,1.09908
3.52,1.29665,1.32869,37.3771,36.5475,38.202,1.09911
3.53,1.29708,1.32879,37.3641,36.5347,38.189,1.09912
3.54,1.29746,1.32897,37.3511,36.5218,38.176,1.09919
3.55,1.29789,1.32916,37.3381,36.5089,38.1629,1.09924
3.56,1.29823,1.3293,37.3252,36.496,38.1499,1.09929
3.57,1.29868,1.32943,37.3122,36.4831,38.1369,1.09932
3.58,1.29901,1.32956,37.2992,36.4702,38.1239,1.09934
3.59,1.29943,1.32968,37.2862,36.4573,38.1108,1.09936
3.6,1.29977,1.32987,37.2732,36.4444,38.0978,1.09942
3.61,1.3001,1.33,37.2602,36.4314,38.0848,1.09947
3.62,1.30048,1.33012,37.2472,36.4185,38.0717,1.09952
3.63,1.30081,1.33024,37.2342,36.4055,38.0587,1.09954
3.64,1.3011,1.33036,37.2212,36.3926,38.0456,1.09956
3.65,1.30146,1.33048,37.2082,36.3797,38.0326,1.09958
3.66,1.30185,1.33061,37.1952,36.3667,38.0195,1.09964
3.67,1.30219,1.33075,37.1821,36.3537,38.0065,1.09969
3.68,1.30268,1.3309,37.1691,36.3408,37.9934,1.09973
3.69,1.30304,1.33105,37.1561,36.3279,37.9803,1.09976
3.7,1.30339,1.33116,37.1431,36.3149,37.9673,1.09978
3.71,1.30372,1.33121,37.13,36.3019,37.9542,1.09979
3.72,1.30401,1.33135,37.117,36.2889,37.9412,1.09984
3.73,1.30436,1.33148,37.1039,36.2759,37.9281,1.09989
3.74,1.30468,1.33163,37.0909,36.263,37.915,1.09993
3.75,1.30509,1.33172,37.0779,36.25,37.9019,1.09996
3.76,1.30537,1.3318,37.0648,36.237,37.8888,1.09998
3.77,1.30567,1.33189,37.0518,36.224,37.8757,1.09998
3.78,1.30604,1.33205,37.0387,36.211,37.8626,1.10004
3.79,1.30634,1.33222,37.0256,36.198,37.8495,1.10009
3.8,1.30666,1.33232,37.0126,36.185,37.8364,1.10013
