time,velocity,ratio,centerX,Xmax,Xmin,Ymax
0,0,1,13.5,12.5,14.5,1
0.01,0.0197213,1,13.4999,12.4999,14.4999,1
0.02,0.0391509,1,13.4996,12.4996,14.4996,1
0.03,0.0582918,1.00001,13.4991,12.4991,14.4991,0.999999
0.04,0.077123,1.00002,13.4985,12.4985,14.4984,0.999998
0.05,0.0956204,1.00001,13.4976,12.4976,14.4976,0.999998
0.06,0.113839,1.00002,13.4965,12.4966,14.4965,0.999998
0.07,0.13179,1.00003,13.4953,12.4954,14.4953,0.999999
0.08,0.14948,1.00005,13.4939,12.494,14.4939,0.999999
0.09,0.166913,1.00007,13.4923,12.4924,14.4923,0.999998
0.1,0.184155,1.00012,13.4906,12.4907,14.4905,1.00002
0.11,0.201156,1.00018,13.4887,12.4888,14.4886,1.00005
0.12,0.217894,1.00024,13.4866,12.4868,14.4864,1.00007
0.13,0.234416,1.00031,13.4843,12.4846,14.4841,1.00009
0.14,0.250717,1.00037,13.4819,12.4822,14.4817,1.0001
0.15,0.266799,1.00043,13.4793,12.4796,14.479,1.00012
0.16,0.282644,1.00051,13.4766,12.4769,14.4762,1.00015
0.17,0.298287,1.00064,13.4737,12.4741,14.4732,1.00021
0.18,0.313718,1.00079,13.4706,12.4711,14.4701,1.00026
0.19,0.328979,1.00096,13.4674,12.468,14.4667,1.00032
0.2,0.343976,1.00114,13.464,12.4648,14.4632,1.00036
0.21,0.358754,1.00132,13.4605,12.4614,14.4596,1.0004
0.22,0.373379,1.00154,13.4569,12.4579,14.4558,1.00049
0.23,0.387762,1.00176,13.4531,12.4542,14.4518,1.00058
0.24,0.401926,1.00201,13.4491,12.4504,14.4477,1.00065
0.25,0.415729,1.00226,13.445,12.4465,14.4434,1.00072
0.26,0.429581,1.00255,13.4408,12.4424,14.439,1.00083
0.27,0.443335,1.00285,13.4364,12.4383,14.4344,1.00093
0.28,0.456749,1.00315,13.4319,12.434,14.4297,1.00102
0.29,0.470003,1.0035,13.4273,12.4295,14.4248,1.00113
0.3,0.483013,1.00386,13.4225,12.425,14.4198,1.00126
0.31,0.495869,1.00421,13.4177,12.4204,14.4147,1.00138
0.32,0.508557,1.00458,13.4126,12.4156,14.4094,1.00149
0.33,0.52115,1.005,13.4075,12.4107,14.404,1.00164
0.34,0.533539,1.0054,13.4022,12.4056,14.3984,1.00177
0.35,0.545737,1.00579,13.3968,12.4005,14.3927,1.0019
0.36,0.557838,1.00624,13.3913,12.3952,14.3869,1.00206
0.37,0.56968,1.00666,13.3857,12.3899,14.381,1.00219
0.38,0.581362,1.00708,13.3799,12.3844,14.375,1.00234
0.39,0.592952,1.00756,13.374,12.3788,14.3688,1.0025
0.4,0.604337,1.00797,13.3681,12.3731,14.3625,1.00263
0.41,0.615617,1.00841,13.362,12.3673,14.3562,1.00279
0.42,0.626968,1.00887,13.3557,12.3614,14.3497,1.00294
0.43,0.637981,1.0093,13.3494,12.3554,14.3431,1.00307
0.44,0.648845,1.00978,13.343,12.3492,14.3363,1.00324
0.45,0.659554,1.01021,13.3365,12.343,14.3294,1.00336
0.46,0.670099,1.01067,13.3298,12.3366,14.3225,1.00353
0.47,0.680529,1.01111,13.3231,12.3302,14.3154,1.00367
0.48,0.69089,1.01154,13.3162,12.3236,14.3083,1.00381
0.49,0.70111,1.01198,13.3092,12.3169,14.3011,1.00396
0.5,0.711019,1.01236,13.3022,12.3101,14.2938,1.00408
0.51,0.720982,1.01279,13.295,12.3032,14.2863,1.00423
0.52,0.73087,1.01317,13.2878,12.2962,14.2788,1.00434
0.53,0.740594,1.01358,13.2804,12.2891,14.2712,1.0045
0.54,0.750295,1.01393,13.273,12.2819,14.2635,1.0046
0.55,0.759898,1.01432,13.2654,12.2746,14.2558,1.00475
0.56,0.769447,1.01466,13.2578,12.2672,14.2479,1.00484
0.57,0.778745,1.01505,13.25,12.2597,14.2399,1.00498
0.58,0.787875,1.01535,13.2422,12.2521,14.2319,1.00507
0.59,0.796979,1.0157,13.2343,12.2444,14.2238,1.00521
0.6,0.805998,1.01601,13.2262,12.2367,14.2155,1.00529
0.61,0.8149,1.01637,13.2181,12.2288,14.2073,1.00542
0.62,0.823715,1.01667,13.21,12.2208,14.1988,1.0055
0.63,0.832505,1.01699,13.2017,12.2127,14.1904,1.00563
0.64,0.841208,1.01728,13.1933,12.2046,14.1818,1.00571
0.65,0.849723,1.01756,13.1849,12.1963,14.1732,1.00582
0.66,0.858169,1.01783,13.1763,12.1879,14.1645,1.0059
0.67,0.866524,1.01811,13.1677,12.1795,14.1557,1.006
0.68,0.874805,1.01841,13.159,12.171,14.1468,1.0061
0.69,0.882802,1.01866,13.1502,12.1624,14.1379,1.00617
0.7,0.891008,1.01896,13.1413,12.1537,14.1288,1.00628
0.71,0.899004,1.01921,13.1324,12.1449,14.1197,1.00635
0.72,0.906915,1.01951,13.1234,12.1361,14.1105,1.00646
0.73,0.91465,1.01975,13.1142,12.1272,14.1013,1.00654
0.74,0.922292,1.02002,13.1051,12.1182,14.0919,1.00664
0.75,0.929928,1.02033,13.0958,12.1091,14.0824,1.00673
0.76,0.937463,1.02058,13.0865,12.1,14.073,1.0068
0.77,0.944985,1.02088,13.0771,12.0907,14.0633,1.00691
0.78,0.952377,1.02116,13.0676,12.0814,14.0537,1.00699
0.79,0.95965,1.02142,13.058,12.072,14.044,1.00709
0.8,0.966909,1.02172,13.0484,12.0626,14.0341,1.00719
0.81,0.974116,1.02197,13.0387,12.053,14.0242,1.00725
0.82,0.981351,1.0223,13.0289,12.0434,14.0143,1.00737
0.83,0.988379,1.02259,13.0191,12.0338,14.0042,1.00747
0.84,0.995425,1.02286,13.0091,12.024,13.9941,1.00755
0.85,1.00223,1.0232,12.9991,12.0143,13.9839,1.00767
0.86,1.00891,1.02347,12.9891,12.0044,13.9737,1.00776
0.87,1.01566,1.02377,12.979,11.9945,13.9634,1.00786
0.88,1.02223,1.02412,12.9688,11.9845,13.9529,1.00798
0.89,1.02875,1.02441,12.9585,11.9744,13.9425,1.00806
0.9,1.03501,1.02473,12.9482,11.9643,13.932,1.00817
0.91,1.04136,1.02507,12.9378,11.9542,13.9214,1.00829
0.92,1.04762,1.02536,12.9274,11.9439,13.9108,1.00838
0.93,1.0538,1.0257,12.9169,11.9336,13.9001,1.0085
0.94,1.05999,1.02606,12.9063,11.9233,13.8893,1.00862
0.95,1.06607,1.02637,12.8957,11.9128,13.8784,1.00871
0.96,1.07205,1.02671,12.885,11.9024,13.8675,1.00882
0.97,1.07792,1.02706,12.8742,11.8919,13.8566,1.00895
0.98,1.08366,1.02738,12.8634,11.8813,13.8456,1.00906
0.99,1.08949,1.0277,12.8526,11.8706,13.8345,1.00915
1,1.09516,1.02807,12.8416,11.8599,13.8234,1.00928
1.01,1.10096,1.0284,12.8307,11.8492,13.8122,1.00939
1.02,1.1066,1.0287,12.8196,11.8383,13.8009,1.00947
1.03,1.11222,1.02904,12.8085,11.8275,13.7897,1.0096
1.04,1.11781,1.02936,12.7974,11.8165,13.7783,1.00971
1.05,1.1232,1.02966,12.7862,11.8055,13.7669,1.0098
1.06,1.12862,1.02997,12.7749,11.7944,13.7555,1.0099
1.07,1.13404,1.0303,12.7636,11.7833,13.744,1.01002
1.08,1.13927,1.0306,12.7522,11.7722,13.7324,1.01012
1.09,1.14451,1.03088,12.7408,11.7609,13.7208,1.0102
1.1,1.14957,1.03119,12.7294,11.7497,13.7092,1.01031
1.11,1.15466,1.0315,12.7178,11.7383,13.6975,1.01042
1.12,1.15973,1.03177,12.7063,11.727,13.6857,1.01051
1.13,1.16467,1.03204,12.6946,11.7155,13.6739,1.01058
1.14,1.16972,1.03231,12.683,11.704,13.6621,1.01068
1.15,1.17473,1.03257,12.6713,11.6925,13.6503,1.01078
1.16,1.17964,1.03281,12.6595,11.6809,13.6384,1.01086
1.17,1.18448,1.03306,12.6477,11.6692,13.6264,1.01092
1.18,1.18918,1.03333,12.6358,11.6575,13.6143,1.01101
1.19,1.19394,1.03355,12.6239,11.6458,13.6023,1.01111
1.2,1.19867,1.03379,12.6119,11.634,13.5903,1.01119
1.21,1.2033,1.03403,12.5999,11.6221,13.5781,1.01125
1.22,1.20794,1.03429,12.5879,11.6103,13.5659,1.01133
1.23,1.21259,1.03453,12.5757,11.5983,13.5536,1.01142
1.24,1.21711,1.03473,12.5636,11.5863,13.5414,1.0115
1.25,1.22163,1.03495,12.5514,11.5743,13.5291,1.01156
1.26,1.22608,1.03516,12.5392,11.5622,13.5167,1.01161
1.27,1.23048,1.03538,12.5269,11.5501,13.5043,1.01169
1.28,1.23493,1.03559,12.5146,11.5379,13.4919,1.01177
1.29,1.23923,1.03577,12.5022,11.5256,13.4794,1.01184
1.3,1.24345,1.03599,12.4898,11.5134,13.4669,1.0119
1.31,1.24762,1.0362,12.4773,11.5011,13.4543,1.01195
1.32,1.25177,1.03643,12.4648,11.4887,13.4417,1.01204
1.33,1.25585,1.03665,12.4523,11.4763,13.429,1.01212
1.34,1.25993,1.03684,12.4397,11.4639,13.4163,1.01219
1.35,1.26398,1.03705,12.4271,11.4514,13.4036,1.01225
1.36,1.26806,1.03725,12.4144,11.4389,13.3908,1.01229
1.37,1.27213,1.03747,12.4017,11.4263,13.378,1.01237
1.38,1.27599,1.03767,12.389,11.4137,13.3651,1.01245
1.39,1.27986,1.03785,12.3762,11.4011,13.3523,1.01252
1.4,1.28368,1.03806,12.3634,11.3884,13.3393,1.01258
1.41,1.28749,1.03826,12.3505,11.3757,13.3263,1.01264
1.42,1.2912,1.03848,12.3376,11.3629,13.3133,1.0127
1.43,1.29489,1.03871,12.3247,11.3501,13.3002,1.01279
1.44,1.29856,1.0389,12.3118,11.3373,13.2872,1.01287
1.45,1.30219,1.03912,12.2987,11.3244,13.274,1.01294
1.46,1.30581,1.03932,12.2857,11.3115,13.2609,1.013
1.47,1.3094,1.03951,12.2726,11.2986,13.2477,1.01305
1.48,1.31292,1.03972,12.2595,11.2856,13.2344,1.01312
1.49,1.31633,1.0399,12.2464,11.2725,13.2212,1.0132
1.5,1.31982,1.04012,12.2332,11.2595,13.2079,1.01328
1.51,1.32317,1.04033,12.22,11.2464,13.1945,1.01335
1.52,1.32651,1.04055,12.2067,11.2333,13.1811,1.01341
1.53,1.32978,1.04074,12.1935,11.2201,13.1677,1.01347
1.54,1.33308,1.04092,12.1801,11.207,13.1543,1.01352
1.55,1.33646,1.04114,12.1668,11.1937,13.1408,1.0136
1.56,1.3396,1.04134,12.1534,11.1805,13.1273,1.01367
1.57,1.34274,1.04156,12.14,11.1672,13.1138,1.01374
1.58,1.34587,1.04174,12.1266,11.1539,13.1003,1.01381
1.59,1.34896,1.04194,12.1131,11.1406,13.0867,1.01387
1.6,1.35204,1.04213,12.0996,11.1272,13.0731,1.01392
1.61,1.35507,1.04232,12.086,11.1138,13.0594,1.01397
1.62,1.3581,1.04253,12.0725,11.1004,13.0458,1.01405
1.63,1.361,1.04273,12.0589,11.0869,13.0321,1.01412
1.64,1.36404,1.04294,12.0453,11.0735,13.0183,1.0142
1.65,1.36697,1.04312,12.0316,11.0599,13.0046,1.01426
1.66,1.36996,1.04331,12.0179,11.0464,12.9908,1.01432
1.67,1.37299,1.04347,12.0042,11.0328,12.977,1.01437
1.68,1.37592,1.04363,11.9905,11.0191,12.9632,1.01443
1.69,1.37871,1.0438,11.9767,11.0055,12.9493,1.01447
1.7,1.3814,1.04398,11.9629,10.9918,12.9354,1.01454
1.71,1.38421,1.04418,11.9491,10.9781,12.9214,1.01461
1.72,1.3869,1.04435,11.9352,10.9644,12.9075,1.01467
1.73,1.38959,1.04454,11.9213,10.9506,12.8935,1.01473
1.74,1.39227,1.0447,11.9074,10.9368,12.8795,1.01478
1.75,1.39485,1.04487,11.8935,10.923,12.8655,1.01483
1.76,1.39753,1.045,11.8795,10.9091,12.8515,1.01487
1.77,1.40013,1.04514,11.8655,10.8952,12.8374,1.01491
1.78,1.40267,1.04529,11.8515,10.8813,12.8233,1.01496
1.79,1.4051,1.04543,11.8375,10.8674,12.8092,1.01501
1.8,1.40761,1.04562,11.8234,10.8535,12.795,1.01507
1.81,1.41012,1.04577,11.8093,10.8395,12.7809,1.01513
1.82,1.41266,1.04594,11.7952,10.8255,12.7667,1.01518
1.83,1.41507,1.04608,11.7811,10.8114,12.7524,1.01523
1.84,1.4175,1.04624,11.7669,10.7974,12.7382,1.01528
1.85,1.41987,1.04635,11.7527,10.7832,12.7239,1.01532
1.86,1.42217,1.04647,11.7385,10.7691,12.7097,1.01536
1.87,1.42448,1.0466,11.7243,10.755,12.6953,1.0154
1.88,1.42667,1.04672,11.71,10.7408,12.681,1.01544
1.89,1.429,1.04684,11.6957,10.7266,12.6667,1.01547
1.9,1.43116,1.04698,11.6814,10.7124,12.6523,1.01551
1.91,1.43353,1.04713,11.6671,10.6982,12.6379,1.01557
1.92,1.43573,1.04726,11.6528,10.6839,12.6235,1.01562
1.93,1.43792,1.04741,11.6384,10.6697,12.6091,1.01567
1.94,1.44015,1.04751,11.624,10.6554,12.5946,1.01571
1.95,1.4423,1.04765,11.6096,10.641,12.5801,1.01575
1.96,1.44439,1.04776,11.5952,10.6267,12.5656,1.01579
1.97,1.4464,1.0479,11.5807,10.6123,12.5511,1.01583
1.98,1.4485,1.04801,11.5662,10.5979,12.5366,1.01586
1.99,1.45062,1.04813,11.5518,10.5835,12.522,1.0159
2,1.45273,1.04825,11.5372,10.5691,12.5075,1.01593
2.01,1.45478,1.04836,11.5227,10.5546,12.4928,1.01597
2.02,1.45679,1.04846,11.5081,10.5402,12.4782,1.016
2.03,1.45884,1.04857,11.4936,10.5257,12.4636,1.01603
2.04,1.4609,1.04871,11.479,10.5112,12.4489,1.01608
2.05,1.46281,1.04883,11.4643,10.4966,12.4343,1.01612
2.06,1.4647,1.04897,11.4497,10.4821,12.4195,1.01617
2.07,1.4666,1.04909,11.4351,10.4675,12.4048,1.01621
2.08,1.46854,1.04923,11.4204,10.4529,12.3901,1.01626
2.09,1.47036,1.04935,11.4057,10.4383,12.3753,1.0163
2.1,1.4722,1.04948,11.391,10.4237,12.3605,1.01634
2.11,1.47409,1.04957,11.3762,10.409,12.3458,1.01637
2.12,1.47585,1.04968,11.3615,10.3943,12.3309,1.01641
2.13,1.47754,1.0498,11.3467,10.3796,12.3161,1.01645
2.14,1.47938,1.04991,11.3319,10.3649,12.3012,1.01649
2.15,1.48116,1.05001,11.3171,10.3502,12.2864,1.01652
2.16,1.48295,1.05013,11.3023,10.3355,12.2715,1.01656
2.17,1.48465,1.05024,11.2875,10.3207,12.2566,1.01659
2.18,1.48643,1.05035,11.2726,10.3059,12.2417,1.01663
2.19,1.48822,1.05043,11.2578,10.2911,12.2268,1.01666
2.2,1.48996,1.05052,11.2429,10.2763,12.2118,1.01669
2.21,1.49159,1.05064,11.228,10.2614,12.1969,1.01671
2.22,1.49319,1.05073,11.213,10.2466,12.1819,1.01675
2.23,1.49473,1.05084,11.1981,10.2317,12.1669,1.01679
2.24,1.4963,1.05095,11.1831,10.2168,12.1519,1.01683
2.25,1.49789,1.05108,11.1682,10.202,12.1368,1.01687
2.26,1.49941,1.05118,11.1532,10.187,12.1218,1.0169
2.27,1.50096,1.0513,11.1382,10.1721,12.1067,1.01694
2.28,1.50249,1.05138,11.1232,10.1572,12.0917,1.01697
2.29,1.50391,1.0515,11.1081,10.1422,12.0766,1.017
2.3,1.50536,1.0516,11.0931,10.1272,12.0615,1.01704
2.31,1.50679,1.05171,11.078,10.1122,12.0464,1.01708
2.32,1.50826,1.05181,11.0629,10.0972,12.0313,1.01711
2.33,1.5097,1.05192,11.0479,10.0822,12.0161,1.01714
2.34,1.51107,1.05202,11.0328,10.0672,12.001,1.01718
2.35,1.51256,1.05212,11.0176,10.0521,11.9858,1.01721
2.36,1.51402,1.05219,11.0025,10.0371,11.9706,1.01724
2.37,1.5155,1.05229,10.9874,10.022,11.9554,1.01727
2.38,1.51681,1.05239,10.9722,10.0069,11.9402,1.0173
2.39,1.51818,1.05248,10.957,9.99177,11.925,1.01733
2.4,1.51961,1.05256,10.9418,9.97666,11.9098,1.01736
2.41,1.521,1.05265,10.9266,9.96153,11.8945,1.01738
2.42,1.52232,1.05275,10.9114,9.94639,11.8793,1.01741
2.43,1.52367,1.05283,10.8962,9.9312,11.864,1.01744
2.44,1.52498,1.05289,10.8809,9.91601,11.8487,1.01746
2.45,1.52635,1.05297,10.8657,9.9008,11.8334,1.01749
2.46,1.52763,1.05306,10.8504,9.88561,11.8181,1.01751
2.47,1.52883,1.05313,10.8351,9.87036,11.8028,1.01753
2.48,1.5301,1.0532,10.8198,9.85513,11.7875,1.01756
2.49,1.53126,1.05328,10.8045,9.83989,11.7721,1.01758
2.5,1.53255,1.05336,10.7892,9.82464,11.7567,1.01761
2.51,1.53385,1.05343,10.7739,9.80934,11.7414,1.01763
2.52,1.53508,1.05349,10.7585,9.79404,11.726,1.01765
2.53,1.53619,1.05355,10.7432,9.77872,11.7106,1.01767
2.54,1.53733,1.05364,10.7278,9.76342,11.6952,1.01769
2.55,1.53841,1.0537,10.7124,9.74807,11.6798,1.01771
2.56,1.53953,1.05377,10.697,9.73276,11.6644,1.01774
2.57,1.54067,1.05384,10.6816,9.71741,11.6489,1.01776
2.58,1.54182,1.05393,10.6662,9.70207,11.6335,1.01778
2.59,1.543,1.054,10.6508,9.68667,11.618,1.01781
2.6,1.54419,1.05406,10.6354,9.67128,11.6025,1.01783
2.61,1.54525,1.05412,10.6199,9.65587,11.5871,1.01786
2.62,1.54636,1.05419,10.6045,9.64047,11.5716,1.01788
2.63,1.54736,1.05426,10.589,9.62503,11.5561,1.0179
2.64,1.54838,1.05433,10.5735,9.60962,11.5406,1.01792
2.65,1.54945,1.05439,10.558,9.59418,11.5251,1.01795
2.66,1.55044,1.05447,10.5425,9.57874,11.5095,1.01797
2.67,1.55148,1.05454,10.527,9.56326,11.494,1.01799
2.68,1.55262,1.05459,10.5115,9.54778,11.4784,1.01801
2.69,1.55365,1.05465,10.496,9.53229,11.4628,1.01803
2.7,1.55473,1.05472,10.4804,9.5168,11.4473,1.01805
2.71,1.55567,1.05478,10.4649,9.50128,11.4317,1.01807
2.72,1.5566,1.05484,10.4493,9.48577,11.4161,1.01809
2.73,1.5576,1.0549,10.4337,9.47025,11.4005,1.01811
2.74,1.55868,1.05497,10.4182,9.45472,11.3849,1.01813
2.75,1.55962,1.05503,10.4026,9.43916,11.3692,1.01815
2.76,1.56065,1.05508,10.387,9.42359,11.3536,1.01817
2.77,1.56155,1.05513,10.3714,9.40801,11.338,1.01819
2.78,1.56253,1.05519,10.3557,9.39243,11.3223,1.01821
2.79,1.56339,1.05525,10.3401,9.37684,11.3067,1.01822
2.8,1.56426,1.05531,10.3245,9.36125,11.291,1.01824
2.81,1.56534,1.05537,10.3088,9.34565,11.2753,1.01826
2.82,1.5661,1.05544,10.2932,9.33005,11.2596,1.01829
2.83,1.56706,1.0555,10.2775,9.31441,11.2439,1.0183
2.84,1.56794,1.05555,10.2618,9.29877,11.2282,1.01832
2.85,1.56886,1.05559,10.2461,9.28312,11.2125,1.01834
2.86,1.56976,1.05566,10.2305,9.26747,11.1968,1.01836
2.87,1.57048,1.05572,10.2148,9.2518,11.1811,1.01838
2.88,1.57126,1.05577,10.199,9.23614,11.1653,1.01839
2.89,1.57213,1.05583,10.1833,9.22048,11.1496,1.01841
2.9,1.57293,1.0559,10.1676,9.2048,11.1338,1.01843
2.91,1.57378,1.05596,10.1519,9.1891,11.1181,1.01845
2.92,1.57455,1.05601,10.1361,9.17339,11.1023,1.01847
2.93,1.57531,1.05605,10.1204,9.15767,11.0865,1.01849
2.94,1.57628,1.05611,10.1046,9.14196,11.0707,1.0185
2.95,1.57699,1.05616,10.0889,9.12622,11.0549,1.01852
2.96,1.57774,1.05621,10.0731,9.11049,11.0391,1.01853
2.97,1.5785,1.05627,10.0573,9.09475,11.0233,1.01855
2.98,1.57922,1.05633,10.0415,9.07901,11.0075,1.01857
2.99,1.58007,1.05638,10.0257,9.06324,10.9917,1.01859
3,1.58091,1.05642,10.0099,9.04747,10.9759,1.0186
3.01,1.58159,1.05646,9.9941,9.03168,10.96,1.01862
3.02,1.58231,1.05652,9.97828,9.0159,10.9442,1.01863
3.03,1.58296,1.05656,9.96246,9.00009,10.9283,1.01865
3.04,1.58363,1.0566,9.94662,8.9843,10.9125,1.01866
3.05,1.58433,1.05665,9.93079,8.9685,10.8966,1.01868
3.06,1.58518,1.0567,9.91494,8.9527,10.8808,1.0187
3.07,1.58599,1.05675,9.89908,8.93686,10.8649,1.01872
3.08,1.58673,1.05677,9.88322,8.92102,10.849,1.01873
3.09,1.5874,1.05681,9.86735,8.90517,10.8331,1.01874
3.1,1.58809,1.05686,9.85147,8.88934,10.8172,1.01876
3.11,1.58872,1.05689,9.83559,8.87346,10.8013,1.01877
3.12,1.58945,1.05692,9.8197,8.85761,10.7854,1.01879
3.13,1.59013,1.05696,9.8038,8.84174,10.7695,1.0188
3.14,1.59091,1.05701,9.78789,8.82587,10.7536,1.01881
3.15,1.59164,1.05704,9.77198,8.80995,10.7376,1.01883
3.16,1.59231,1.05706,9.75606,8.79405,10.7217,1.01884
3.17,1.59296,1.0571,9.74014,8.77814,10.7058,1.01885
3.18,1.59358,1.05716,9.7242,8.76225,10.6898,1.01886
3.19,1.59411,1.0572,9.70827,8.74632,10.6738,1.01887
3.2,1.59475,1.05724,9.69232,8.73042,10.6579,1.01889
3.21,1.59549,1.05729,9.67637,8.7145,10.6419,1.0189
3.22,1.59617,1.05735,9.66041,8.69859,10.6259,1.01891
3.23,1.59678,1.05739,9.64445,8.68263,10.6099,1.01893
3.24,1.59737,1.05741,9.62848,8.66668,10.5939,1.01894
3.25,1.598,1.05745,9.6125,8.65072,10.5779,1.01895
3.26,1.59862,1.0575,9.59652,8.63478,10.5619,1.01896
3.27,1.59917,1.05754,9.58053,8.6188,10.5459,1.01898
3.28,1.59975,1.05758,9.56453,8.60284,10.5299,1.01899
3.29,1.60027,1.05762,9.54853,8.58687,10.5138,1.01901
3.3,1.60086,1.05767,9.53253,8.57091,10.4978,1.01902
3.31,1.60147,1.0577,9.51652,8.5549,10.4818,1.01903
3.32,1.602,1.05772,9.5005,8.5389,10.4658,1.01905
3.33,1.60265,1.05775,9.48448,8.5229,10.4497,1.01906
3.34,1.60316,1.05779,9.46845,8.50691,10.4337,1.01907
3.35,1.60362,1.05782,9.45242,8.49088,10.4176,1.01908
3.36,1.60417,1.05786,9.43638,8.47488,10.4016,1.01909
3.37,1.60472,1.0579,9.42033,8.45887,10.3855,1.01911
3.38,1.60542,1.05795,9.40428,8.44285,10.3694,1.01912
3.39,1.60594,1.05797,9.38823,8.4268,10.3534,1.01913
3.4,1.60644,1.058,9.37216,8.41077,10.3373,1.01913
3.41,1.60698,1.05804,9.3561,8.39473,10.3212,1.01914
3.42,1.60743,1.05807,9.34003,8.37869,10.3051,1.01915
3.43,1.60804,1.0581,9.32395,8.36264,10.289,1.01916
3.44,1.6085,1.05814,9.30787,8.3466,10.2729,1.01916
3.45,1.60901,1.05818,9.29178,8.33055,10.2568,1.01917
3.46,1.60944,1.05822,9.27569,8.31449,10.2407,1.01919
3.47,1.60988,1.05824,9.25959,8.29841,10.2246,1.0192
3.48,1.61049,1.05827,9.24349,8.28233,10.2085,1.01921
3.49,1.61093,1.05831,9.22738,8.26626,10.1924,1.01923
3.5,1.61127,1.05834,9.21127,8.25016,10.1763,1.01924
3.51,1.61167,1.05837,9.19516,8.23408,10.1602,1.01925
3.52,1.61214,1.05841,9.17904,8.21799,10.144,1.01927
3.53,1.61259,1.05846,9.16291,8.2019,10.1279,1.01928
3.54,1.61307,1.05848,9.14679,8.18577,10.1117,1.01929
3.55,1.61345,1.05849,9.13065,8.16965,10.0956,1.01931
3.56,1.61392,1.05852,9.11452,8.15352,10.0794,1.01932
3.57,1.6143,1.05855,9.09838,8.1374,10.0633,1.01932
3.58,1.61468,1.05857,9.08223,8.12125,10.0471,1.01933
3.59,1.61509,1.05859,9.06608,8.10513,10.031,1.01934
3.6,1.61551,1.05862,9.04993,8.08899,10.0148,1.01934
3.61,1.61603,1.05865,9.03377,8.07287,9.99862,1.01935
3.62,1.61644,1.05867,9.01761,8.0567,9.98243,1.01935
3.63,1.61694,1.05867,9.00144,8.04054,9.96627,1.01936
3.64,1.61731,1.05869,8.98527,8.02437,9.95008,1.01936
3.65,1.61769,1.05871,8.9691,8.00823,9.93389,1.01936
3.66,1.61809,1.05872,8.95292,7.99205,9.9177,1.01937
3.67,1.61854,1.05874,8.93674,7.97589,9.90152,1.01937
3.68,1.61893,1.05877,8.92055,7.95972,9.88532,1.01938
3.69,1.61952,1.05879,8.90436,7.94355,9.86912,1.01938
3.7,1.62,1.05879,8.88816,7.92735,9.85292,1.01938
3.71,1.6204,1.05879,8.87196,7.91116,9.83673,1.01939
3.72,1.62079,1.0588,8.85575,7.89496,9.82051,1.01939
3.73,1.62109,1.05882,8.83954,7.87877,9.80429,1.01939
3.74,1.62153,1.05882,8.82333,7.86257,9.78809,1.01939
3.75,1.62194,1.05885,8.80711,7.84638,9.77186,1.0194
3.76,1.62232,1.05889,8.79089,7.83019,9.75563,1.01942
3.77,1.62268,1.05892,8.77467,7.81397,9.73938,1.01943
3.78,1.623,1.05894,8.75844,7.79776,9.72317,1.01944
3.79,1.62333,1.05896,8.74221,7.78154,9.70692,1.01945
3.8,1.62363,1.059,8.72597,7.76533,9.69067,1.01946
