time,velocity,ratio,centerX,Xmax,Xmin,Ymax
0,0,1,1.75,0.75,2.75,1
0.01,0.0183874,0.999999,1.74991,0.749904,2.74993,1.00001
0.02,0.0364915,1.00003,1.74965,0.749665,2.74964,1.00002
0.03,0.0542989,1.00008,1.74921,0.749267,2.74917,1.00004
0.04,0.0718253,1.00015,1.74859,0.748711,2.74851,1.00005
0.05,0.0891031,1.00024,1.7478,0.748,2.74766,1.00007
0.06,0.106102,1.00033,1.74684,0.747133,2.74664,1.00009
0.07,0.122777,1.00045,1.7457,0.746114,2.74544,1.00011
0.08,0.139237,1.00059,1.74441,0.74495,2.74406,1.00014
0.09,0.155007,1.00074,1.74295,0.74366,2.74251,1.00017
0.1,0.170967,1.00094,1.74133,0.742245,2.7408,1.00022
0.11,0.186519,1.00117,1.73956,0.740699,2.73894,1.00028
0.12,0.201988,1.00141,1.73762,0.739023,2.73691,1.00035
0.13,0.217089,1.00167,1.73554,0.737221,2.73475,1.00043
0.14,0.232071,1.00193,1.73331,0.735295,2.73246,1.00051
0.15,0.246684,1.00222,1.73092,0.73325,2.73001,1.00059
0.16,0.261222,1.00254,1.7284,0.731083,2.72738,1.00068
0.17,0.275513,1.00291,1.72572,0.728798,2.72456,1.00079
0.18,0.289451,1.00336,1.72291,0.726403,2.72156,1.00092
0.19,0.303297,1.00383,1.71996,0.723904,2.71839,1.00107
0.2,0.31692,1.00432,1.71687,0.721303,2.7151,1.00121
0.21,0.330168,1.00486,1.71364,0.718604,2.71163,1.00136
0.22,0.343371,1.00547,1.71028,0.7158,2.70796,1.00153
0.23,0.356334,1.00617,1.70679,0.712894,2.70407,1.00173
0.24,0.368931,1.00688,1.70318,0.709898,2.70008,1.00193
0.25,0.381315,1.00761,1.69944,0.706827,2.69596,1.00214
0.26,0.393118,1.00844,1.69557,0.703684,2.69164,1.00236
0.27,0.405019,1.00938,1.69159,0.700462,2.6871,1.00264
0.28,0.416896,1.01032,1.68749,0.697132,2.68247,1.00291
0.29,0.428359,1.0113,1.68327,0.69371,2.67767,1.00319
0.3,0.439745,1.0124,1.67894,0.690205,2.67263,1.00351
0.31,0.45071,1.01356,1.6745,0.686626,2.66748,1.00385
0.32,0.461431,1.0147,1.66995,0.682997,2.66228,1.0042
0.33,0.471973,1.01594,1.66529,0.679319,2.65691,1.00455
0.34,0.482237,1.0173,1.66052,0.675581,2.65135,1.00497
0.35,0.492433,1.0187,1.65566,0.671796,2.64566,1.00539
0.36,0.502274,1.02017,1.65069,0.667949,2.63978,1.0058
0.37,0.511977,1.02178,1.64563,0.664034,2.63371,1.00629
0.38,0.521478,1.02344,1.64047,0.66007,2.62752,1.00678
0.39,0.530827,1.02517,1.63521,0.656074,2.62114,1.00726
0.4,0.539917,1.02704,1.62987,0.65203,2.61461,1.00782
0.41,0.548429,1.02896,1.62443,0.647941,2.60792,1.00838
0.42,0.556942,1.03096,1.61891,0.643826,2.60109,1.00893
0.43,0.565396,1.03309,1.61331,0.639696,2.59414,1.00956
0.44,0.573554,1.03527,1.60762,0.635512,2.58705,1.01018
0.45,0.580721,1.03751,1.60185,0.631262,2.57981,1.01082
0.46,0.588405,1.03988,1.59601,0.626958,2.5724,1.01151
0.47,0.595865,1.04232,1.5901,0.622613,2.56482,1.0122
0.48,0.603027,1.0449,1.58411,0.618277,2.55706,1.01292
0.49,0.609861,1.04763,1.57805,0.613939,2.54911,1.01367
0.5,0.616593,1.05043,1.57192,0.609584,2.54103,1.01442
0.51,0.623102,1.05335,1.56573,0.605213,2.53283,1.01523
0.52,0.629228,1.05635,1.55948,0.600804,2.5245,1.01605
0.53,0.635379,1.05942,1.55316,0.596377,2.51604,1.01687
0.54,0.641302,1.06266,1.54678,0.591944,2.50742,1.01775
0.55,0.646842,1.06597,1.54034,0.587486,2.49864,1.01862
0.56,0.652376,1.06944,1.53385,0.583015,2.48972,1.01955
0.57,0.657632,1.07303,1.52731,0.578547,2.48062,1.02049
0.58,0.662692,1.0767,1.52071,0.574062,2.47143,1.02144
0.59,0.667388,1.08049,1.51406,0.569531,2.46211,1.02245
0.6,0.672007,1.08433,1.50737,0.564976,2.45268,1.02344
0.61,0.67639,1.08834,1.50063,0.560416,2.44311,1.0245
0.62,0.680586,1.09246,1.49385,0.555874,2.4334,1.02556
0.63,0.68438,1.09672,1.48703,0.551337,2.42354,1.02664
0.64,0.688155,1.10114,1.48017,0.546803,2.41353,1.02776
0.65,0.691601,1.10564,1.47328,0.542271,2.4034,1.02886
0.66,0.694749,1.1103,1.46635,0.537729,2.39316,1.03004
0.67,0.697825,1.11506,1.45939,0.533202,2.38281,1.03121
0.68,0.700729,1.11994,1.4524,0.528695,2.37235,1.03239
0.69,0.703475,1.12497,1.44538,0.52419,2.36178,1.03362
0.7,0.705852,1.1301,1.43834,0.519706,2.35109,1.03483
0.71,0.708092,1.13544,1.43127,0.515261,2.34031,1.03611
0.72,0.71026,1.14084,1.42418,0.510819,2.32943,1.03737
0.73,0.712225,1.14639,1.41707,0.506345,2.31845,1.03869
0.74,0.71385,1.15204,1.40995,0.501851,2.30738,1.04001
0.75,0.715409,1.1578,1.4028,0.497365,2.29621,1.04135
0.76,0.716786,1.16375,1.39565,0.492937,2.28496,1.04273
0.77,0.717963,1.16979,1.38847,0.488541,2.27362,1.04408
0.78,0.718815,1.17603,1.38129,0.484171,2.2622,1.04551
0.79,0.719665,1.18237,1.3741,0.479818,2.25071,1.04692
0.8,0.720453,1.18882,1.36691,0.475465,2.23914,1.04835
0.81,0.720776,1.19543,1.3597,0.471134,2.2275,1.0498
0.82,0.721048,1.20213,1.35249,0.466837,2.21584,1.05126
0.83,0.721354,1.209,1.34528,0.462548,2.20413,1.05279
0.84,0.721433,1.21595,1.33807,0.458281,2.19236,1.05427
0.85,0.721403,1.22312,1.33086,0.454053,2.18053,1.05584
0.86,0.721186,1.23039,1.32365,0.449849,2.16864,1.05739
0.87,0.72079,1.23776,1.31644,0.445629,2.15673,1.05897
0.88,0.720319,1.24525,1.30924,0.441407,2.14479,1.06057
0.89,0.719749,1.25282,1.30204,0.437204,2.13282,1.06215
0.9,0.718729,1.26057,1.29485,0.433041,2.12083,1.06379
0.91,0.71775,1.26843,1.28767,0.428925,2.10879,1.06539
0.92,0.716787,1.27645,1.2805,0.42484,2.09676,1.06706
0.93,0.71574,1.28458,1.27334,0.420799,2.08472,1.06872
0.94,0.714565,1.29282,1.26619,0.416769,2.07267,1.07039
0.95,0.713238,1.30121,1.25905,0.412758,2.06062,1.07211
0.96,0.711742,1.30967,1.25192,0.408791,2.04858,1.07379
0.97,0.710233,1.31837,1.24482,0.404876,2.03652,1.07556
0.98,0.708653,1.32713,1.23772,0.400979,2.02447,1.07729
0.99,0.706859,1.33603,1.23065,0.397124,2.01242,1.07904
1,0.705103,1.34507,1.22359,0.393326,2.00039,1.08081
1.01,0.70304,1.35424,1.21655,0.389589,1.98837,1.08256
1.02,0.701052,1.36358,1.20953,0.385859,1.97637,1.08439
1.03,0.698917,1.37295,1.20253,0.382123,1.96439,1.08618
1.04,0.696732,1.38247,1.19556,0.378391,1.95243,1.08803
1.05,0.694521,1.39207,1.1886,0.374676,1.94051,1.08988
1.06,0.692017,1.40179,1.18167,0.371015,1.92862,1.09172
1.07,0.689575,1.41173,1.17476,0.367432,1.91676,1.09362
1.08,0.687109,1.42169,1.16788,0.363893,1.90496,1.09546
1.09,0.684519,1.43185,1.16102,0.360406,1.8932,1.09737
1.1,0.6819,1.4421,1.15419,0.356956,1.88149,1.09927
1.11,0.679106,1.45244,1.14739,0.353518,1.86983,1.10118
1.12,0.676299,1.46294,1.14061,0.350117,1.85821,1.10313
1.13,0.673464,1.4735,1.13386,0.346762,1.84665,1.10504
1.14,0.670662,1.48423,1.12714,0.343452,1.83517,1.10702
1.15,0.667735,1.49496,1.12045,0.34017,1.82381,1.10899
1.16,0.664667,1.50569,1.11379,0.336921,1.81257,1.11094
1.17,0.661647,1.51655,1.10716,0.33372,1.80145,1.11294
1.18,0.65851,1.5274,1.10056,0.330565,1.79044,1.11491
1.19,0.655402,1.53842,1.09399,0.327459,1.77954,1.11696
1.2,0.652218,1.54944,1.08745,0.324369,1.76876,1.11899
1.21,0.649013,1.56048,1.08095,0.32129,1.75807,1.12103
1.22,0.645692,1.57163,1.07448,0.318231,1.74748,1.12313
1.23,0.642365,1.58275,1.06804,0.315202,1.737,1.12518
1.24,0.638794,1.59399,1.06163,0.312209,1.72662,1.12728
1.25,0.635472,1.60529,1.05526,0.309273,1.71633,1.12937
1.26,0.632024,1.61663,1.04892,0.306388,1.70615,1.13145
1.27,0.628636,1.62813,1.04262,0.30354,1.69605,1.13359
1.28,0.625098,1.63963,1.03635,0.300737,1.68605,1.13571
1.29,0.621643,1.65127,1.03012,0.29798,1.67614,1.13785
1.3,0.618053,1.66298,1.02392,0.295258,1.66632,1.14003
1.31,0.614371,1.67467,1.01776,0.292564,1.65658,1.14214
1.32,0.610811,1.68654,1.01163,0.289904,1.64693,1.14434
1.33,0.607101,1.69844,1.00555,0.287282,1.63736,1.14651
1.34,0.603375,1.71043,0.99949,0.284703,1.62786,1.14869
1.35,0.599663,1.72258,0.993478,0.282173,1.61846,1.15093
1.36,0.595939,1.73476,0.987499,0.279684,1.60913,1.15313
1.37,0.592117,1.74702,0.98156,0.277218,1.5999,1.15537
1.38,0.588403,1.75939,0.975659,0.274789,1.59072,1.15762
1.39,0.584615,1.77174,0.969792,0.272403,1.58164,1.15982
1.4,0.580864,1.78432,0.963967,0.270061,1.57262,1.1621
1.41,0.57711,1.79695,0.958175,0.267763,1.5637,1.16437
1.42,0.573165,1.80963,0.952427,0.265508,1.55484,1.1666
1.43,0.569368,1.82253,0.946713,0.263278,1.54604,1.16893
1.44,0.565479,1.83539,0.94104,0.261058,1.53733,1.17123
1.45,0.56151,1.8483,0.935406,0.258858,1.52866,1.17349
1.46,0.557575,1.86136,0.929809,0.256684,1.52009,1.17583
1.47,0.553602,1.87445,0.924255,0.25454,1.51159,1.17813
1.48,0.549692,1.88765,0.918736,0.252429,1.50315,1.18046
1.49,0.545824,1.90099,0.913262,0.250354,1.49479,1.18283
1.5,0.541786,1.91439,0.907821,0.248325,1.48648,1.18516
1.51,0.537805,1.92798,0.902426,0.246351,1.47824,1.18753
1.52,0.533832,1.9416,0.897064,0.244409,1.47009,1.18989
1.53,0.529863,1.95528,0.891749,0.242501,1.46199,1.19222
1.54,0.525945,1.96911,0.886467,0.240632,1.45397,1.1946
1.55,0.521942,1.98305,0.88123,0.238795,1.44603,1.197
1.56,0.518018,1.99705,0.876027,0.236999,1.43814,1.19937
1.57,0.514051,2.01123,0.87087,0.235242,1.4303,1.20177
1.58,0.509821,2.02548,0.865748,0.233517,1.42255,1.20418
1.59,0.505917,2.03974,0.860673,0.231817,1.41485,1.20654
1.6,0.501875,2.05418,0.85563,0.230146,1.40721,1.20895
1.61,0.497881,2.06874,0.850635,0.228507,1.39964,1.21139
1.62,0.493806,2.08329,0.845674,0.226898,1.39215,1.21378
1.63,0.489813,2.09801,0.840759,0.225322,1.38471,1.2162
1.64,0.485844,2.11291,0.835877,0.223782,1.37732,1.21866
1.65,0.481843,2.12776,0.831042,0.222276,1.37001,1.22106
1.66,0.477834,2.14273,0.826241,0.220802,1.36277,1.22346
1.67,0.473751,2.15792,0.821485,0.21936,1.35557,1.22593
1.68,0.469888,2.17314,0.816765,0.217949,1.34844,1.22835
1.69,0.465873,2.18839,0.812088,0.216563,1.34137,1.23076
1.7,0.461879,2.20384,0.807449,0.215202,1.33439,1.23325
1.71,0.457785,2.21929,0.802849,0.213868,1.32745,1.23568
1.72,0.453903,2.23475,0.798292,0.212562,1.32058,1.23807
1.73,0.449903,2.2505,0.79377,0.211284,1.31375,1.24055
1.74,0.445979,2.26625,0.789294,0.210034,1.30701,1.24301
1.75,0.441917,2.28203,0.784852,0.208813,1.30032,1.24543
1.76,0.437951,2.29802,0.780454,0.20762,1.29368,1.2479
1.77,0.433977,2.31412,0.776093,0.206454,1.2871,1.25038
1.78,0.430031,2.33021,0.771772,0.205316,1.28058,1.25279
1.79,0.426129,2.34633,0.767493,0.204205,1.27413,1.2552
1.8,0.422271,2.36267,0.763248,0.203121,1.26775,1.25768
1.81,0.418387,2.37903,0.759048,0.202058,1.26141,1.26012
1.82,0.414583,2.39537,0.754881,0.201009,1.25514,1.26252
1.83,0.410685,2.41192,0.750754,0.199975,1.24892,1.26498
1.84,0.40684,2.42849,0.746668,0.198958,1.24276,1.26743
1.85,0.403078,2.445,0.742614,0.197958,1.23667,1.26982
1.86,0.399273,2.4616,0.738605,0.196978,1.23063,1.27222
1.87,0.395477,2.4784,0.73463,0.196019,1.22465,1.27468
1.88,0.391737,2.49519,0.730691,0.195081,1.21873,1.2771
1.89,0.388022,2.51196,0.726795,0.194163,1.21288,1.27948
1.9,0.384288,2.5289,0.722931,0.193267,1.20708,1.28191
1.91,0.380571,2.54589,0.719107,0.192393,1.20133,1.28433
1.92,0.376903,2.56283,0.715321,0.19154,1.19566,1.2867
1.93,0.37319,2.57978,0.711567,0.190708,1.19005,1.28904
1.94,0.369546,2.59701,0.707856,0.189897,1.18448,1.29148
1.95,0.365856,2.61422,0.704178,0.189107,1.17898,1.29387
1.96,0.362185,2.63141,0.700535,0.188337,1.17353,1.29622
1.97,0.358512,2.64862,0.696935,0.187587,1.16813,1.29854
1.98,0.354907,2.66605,0.693367,0.186865,1.16279,1.30094
1.99,0.351255,2.68348,0.689833,0.186169,1.15751,1.30328
2,0.347674,2.70085,0.686342,0.185488,1.15228,1.30558
2.01,0.344071,2.7183,0.682882,0.184823,1.14712,1.30791
2.02,0.340482,2.73586,0.679455,0.184172,1.14202,1.31027
2.03,0.336918,2.75338,0.676072,0.183537,1.13698,1.3126
2.04,0.333365,2.77078,0.672719,0.182917,1.13199,1.31484
2.05,0.329839,2.7883,0.669399,0.182313,1.12706,1.31712
2.06,0.326332,2.80592,0.66612,0.181724,1.12218,1.31943
2.07,0.322771,2.82347,0.662874,0.18115,1.11736,1.32169
2.08,0.319276,2.84097,0.65966,0.180592,1.1126,1.3239
2.09,0.315827,2.85856,0.656485,0.180048,1.10788,1.32614
2.1,0.312331,2.87625,0.653345,0.179519,1.10323,1.32841
2.11,0.308924,2.89382,0.650236,0.179004,1.09863,1.33062
2.12,0.305373,2.9113,0.647161,0.178498,1.09408,1.33277
2.13,0.302011,2.9287,0.644128,0.17798,1.0896,1.33493
2.14,0.298643,2.94617,0.641122,0.177455,1.08518,1.33715
2.15,0.295232,2.9635,0.63815,0.176926,1.0808,1.33932
2.16,0.291787,2.98066,0.635216,0.176392,1.07649,1.34145
2.17,0.288461,2.99768,0.632316,0.175855,1.07224,1.34353
2.18,0.285067,3.01482,0.629445,0.175313,1.06803,1.34569
2.19,0.28178,3.03179,0.626608,0.174771,1.06388,1.34781
2.2,0.278436,3.04858,0.623812,0.174224,1.0598,1.34987
2.21,0.275197,3.06519,0.621044,0.173674,1.05576,1.35188
2.22,0.271989,3.08188,0.618306,0.173122,1.05178,1.35396
2.23,0.268762,3.09849,0.6156,0.172567,1.04785,1.35603
2.24,0.265535,3.11491,0.612934,0.17201,1.04399,1.35806
2.25,0.262362,3.13114,0.610295,0.17145,1.04017,1.36004
2.26,0.259209,3.14716,0.607684,0.170885,1.0364,1.36196
2.27,0.25605,3.16329,0.605104,0.170315,1.03269,1.36397
2.28,0.25287,3.17918,0.602562,0.16974,1.02904,1.36593
2.29,0.249756,3.19485,0.600049,0.16916,1.02544,1.36784
2.3,0.246646,3.21033,0.597563,0.168577,1.02189,1.36971
2.31,0.243483,3.22575,0.595108,0.167996,1.01839,1.37158
2.32,0.240399,3.24114,0.592688,0.167417,1.01496,1.3735
2.33,0.237269,3.2563,0.590302,0.166832,1.01157,1.37536
2.34,0.234188,3.27123,0.587943,0.166248,1.00823,1.37716
2.35,0.231148,3.28593,0.585612,0.165667,1.00495,1.37891
2.36,0.228106,3.30055,0.583311,0.165086,1.00173,1.38069
2.37,0.225103,3.31508,0.581046,0.164502,0.998566,1.38249
2.38,0.222114,3.3294,0.578812,0.16392,0.995453,1.38425
2.39,0.219184,3.34348,0.576604,0.163336,0.992389,1.38596
2.4,0.216217,3.35732,0.574424,0.162749,0.989375,1.38762
2.41,0.2133,3.37104,0.572272,0.162166,0.986418,1.38929
2.42,0.210346,3.3847,0.570155,0.161578,0.983516,1.39101
2.43,0.207464,3.39809,0.568068,0.160992,0.980662,1.39266
2.44,0.204613,3.41122,0.566008,0.160407,0.977861,1.39426
2.45,0.201749,3.42409,0.563974,0.159817,0.975104,1.39581
2.46,0.198873,3.43676,0.561969,0.159236,0.972396,1.39732
2.47,0.196044,3.44944,0.559993,0.158646,0.969743,1.39892
2.48,0.19324,3.46189,0.558049,0.158066,0.967144,1.40047
2.49,0.190378,3.47405,0.556133,0.157478,0.964594,1.40198
2.5,0.1876,3.48596,0.554244,0.156899,0.9621,1.40345
2.51,0.184814,3.49758,0.552381,0.156313,0.959653,1.40487
2.52,0.182039,3.50908,0.550545,0.155733,0.957255,1.4063
2.53,0.179254,3.52039,0.548736,0.155142,0.954912,1.40775
2.54,0.17654,3.53142,0.546958,0.154559,0.952626,1.40916
2.55,0.173811,3.54207,0.545208,0.153963,0.950396,1.41051
2.56,0.171111,3.55249,0.543483,0.153376,0.948211,1.41182
2.57,0.168401,3.56261,0.541783,0.152779,0.946069,1.41309
2.58,0.16572,3.57258,0.540109,0.152187,0.94398,1.41437
2.59,0.163086,3.5824,0.538462,0.151592,0.941946,1.41568
2.6,0.160459,3.59192,0.536841,0.150996,0.939962,1.41695
2.61,0.157826,3.60116,0.535248,0.150405,0.93803,1.41818
2.62,0.155228,3.61005,0.533684,0.149806,0.936149,1.41937
2.63,0.152653,3.6187,0.532146,0.14922,0.934319,1.42052
2.64,0.150103,3.62703,0.530632,0.14862,0.932529,1.42163
2.65,0.147519,3.63533,0.529142,0.148032,0.93079,1.42279
2.66,0.144992,3.64332,0.527676,0.147443,0.929103,1.42392
2.67,0.142473,3.65097,0.526236,0.146852,0.927463,1.42499
2.68,0.139931,3.65833,0.524821,0.146273,0.925878,1.42602
2.69,0.137469,3.66527,0.523432,0.145679,0.924346,1.42701
2.7,0.135037,3.67195,0.522068,0.145096,0.922862,1.42796
2.71,0.132604,3.67833,0.520731,0.144518,0.921433,1.42888
2.72,0.130211,3.68466,0.519419,0.143931,0.920043,1.42986
2.73,0.127817,3.69078,0.51813,0.143359,0.918693,1.43079
2.74,0.125438,3.69657,0.516864,0.142782,0.917389,1.43169
2.75,0.123086,3.70206,0.515622,0.142204,0.916126,1.43255
2.76,0.120756,3.70729,0.514402,0.141639,0.914912,1.43337
2.77,0.118433,3.71218,0.513206,0.141062,0.913739,1.43416
2.78,0.116135,3.71675,0.512032,0.14049,0.912618,1.4349
2.79,0.113845,3.72118,0.510881,0.139923,0.911538,1.43566
2.8,0.111581,3.72536,0.509751,0.139343,0.91051,1.43644
2.81,0.109328,3.72919,0.508644,0.138754,0.909525,1.43718
2.82,0.107097,3.73274,0.507559,0.13817,0.90859,1.43789
2.83,0.104909,3.73599,0.506497,0.137592,0.9077,1.43856
2.84,0.102721,3.73884,0.505457,0.136998,0.906857,1.43919
2.85,0.100563,3.74138,0.504439,0.136409,0.906062,1.43978
2.86,0.0984052,3.74367,0.503444,0.135827,0.905305,1.44034
2.87,0.0962816,3.74569,0.50247,0.135247,0.904592,1.44087
2.88,0.0941754,3.74758,0.501517,0.134654,0.903922,1.44145
2.89,0.0920921,3.74924,0.500585,0.134073,0.903293,1.44199
2.9,0.0900128,3.75064,0.499674,0.133502,0.902706,1.4425
2.91,0.0879622,3.75173,0.498782,0.132929,0.902163,1.44298
2.92,0.0859391,3.75247,0.497912,0.132346,0.901664,1.44342
2.93,0.083918,3.75295,0.497061,0.131771,0.901209,1.44383
2.94,0.0819301,3.7532,0.49623,0.131206,0.900796,1.44421
2.95,0.0799704,3.75317,0.49542,0.130645,0.900426,1.44456
2.96,0.0780253,3.7528,0.494628,0.13007,0.900099,1.44488
2.97,0.0761079,3.75232,0.493857,0.129504,0.899815,1.44523
2.98,0.0742036,3.75164,0.493104,0.128942,0.899574,1.44557
2.99,0.0723105,3.75071,0.492371,0.128388,0.899374,1.44587
3,0.070444,3.74949,0.491656,0.127831,0.899217,1.44615
3.01,0.0685795,3.74798,0.49096,0.127271,0.899101,1.4464
3.02,0.0667508,3.74623,0.490283,0.126719,0.899028,1.44662
3.03,0.0649455,3.74423,0.489624,0.126176,0.899,1.44682
3.04,0.0631562,3.74201,0.488983,0.125642,0.899012,1.44698
3.05,0.06139,3.73962,0.488361,0.125111,0.899052,1.44712
3.06,0.0596523,3.73695,0.487755,0.124565,0.899118,1.44723
3.07,0.0579317,3.7341,0.487166,0.124021,0.89921,1.44732
3.08,0.0562258,3.73117,0.486594,0.123482,0.899328,1.44741
3.09,0.054521,3.72813,0.486039,0.122941,0.899472,1.4475
3.1,0.052835,3.72491,0.485501,0.122399,0.899641,1.44758
3.11,0.05116,3.72153,0.48498,0.12186,0.899835,1.44763
3.12,0.0495114,3.71795,0.484475,0.121317,0.900054,1.44765
3.13,0.0478817,3.71423,0.483986,0.120781,0.900298,1.44765
3.14,0.046285,3.71037,0.483514,0.120251,0.900565,1.44763
3.15,0.044709,3.70638,0.483057,0.119726,0.900856,1.44758
3.16,0.0431632,3.70224,0.482616,0.119207,0.901171,1.44751
3.17,0.041628,3.69791,0.482191,0.118681,0.901509,1.44741
3.18,0.0401121,3.69339,0.481781,0.118146,0.901869,1.44729
3.19,0.0385927,3.68876,0.481386,0.117622,0.902252,1.44715
3.2,0.0371112,3.68402,0.481006,0.117106,0.902657,1.44699
3.21,0.035672,3.67917,0.480641,0.116597,0.903084,1.44681
3.22,0.0342332,3.67425,0.48029,0.116095,0.903531,1.44662
3.23,0.0328168,3.66933,0.479953,0.115599,0.904,1.44645
3.24,0.0314221,3.6643,0.479631,0.115108,0.904488,1.44626
3.25,0.0300633,3.65908,0.479322,0.114602,0.904997,1.44606
3.26,0.0287147,3.65377,0.479027,0.114103,0.905524,1.44583
3.27,0.0273901,3.64837,0.478745,0.113611,0.90607,1.44559
3.28,0.0260771,3.64288,0.478477,0.113125,0.906635,1.44533
3.29,0.0247701,3.63731,0.478222,0.112646,0.90722,1.44506
3.3,0.0234678,3.63165,0.47798,0.112173,0.907823,1.44476
3.31,0.0222147,3.62591,0.477751,0.111707,0.908445,1.44445
3.32,0.0210082,3.62008,0.477534,0.111247,0.909083,1.44412
3.33,0.019813,3.61415,0.47733,0.110784,0.909739,1.44377
3.34,0.0186089,3.60811,0.477138,0.110318,0.91041,1.44341
3.35,0.0174269,3.602,0.476958,0.109858,0.911098,1.44304
3.36,0.0162837,3.59584,0.476789,0.109404,0.911801,1.44264
3.37,0.0151395,3.5896,0.476632,0.108954,0.91252,1.44224
3.38,0.0140452,3.58328,0.476486,0.108503,0.913252,1.44182
3.39,0.0129554,3.57689,0.47635,0.108052,0.913999,1.44139
3.4,0.011875,3.57042,0.476225,0.107603,0.91476,1.44095
3.41,0.0108283,3.5639,0.476111,0.107155,0.915534,1.44049
3.42,0.00979254,3.55736,0.476007,0.10671,0.916321,1.44004
3.43,0.00878314,3.5508,0.475913,0.106267,0.917121,1.43959
3.44,0.00780407,3.54419,0.475829,0.105828,0.917934,1.43913
3.45,0.0068313,3.53754,0.475755,0.105391,0.918758,1.43866
3.46,0.00588553,3.53084,0.47569,0.104958,0.919595,1.43818
3.47,0.00496031,3.52415,0.475634,0.10453,0.920443,1.4377
3.48,0.00405575,3.51735,0.475588,0.104107,0.921302,1.43718
3.49,0.00316277,3.51055,0.475551,0.103687,0.922172,1.43666
3.5,0.00228437,3.50367,0.475522,0.103272,0.923056,1.43613
3.51,0.00140528,3.4967,0.475502,0.102854,0.923956,1.43557
3.52,0.00052609,3.48968,0.475492,0.102438,0.924869,1.43501
3.53,-0.000304091,3.48262,0.47549,0.102025,0.925796,1.43444
3.54,-0.0011535,3.47553,0.475496,0.101617,0.926736,1.43386
3.55,-0.00200217,3.46839,0.475511,0.101212,0.927689,1.43327
3.56,-0.00279847,3.46124,0.475534,0.100814,0.928653,1.43267
3.57,-0.003613,3.45406,0.475566,0.100419,0.929629,1.43207
3.58,-0.00439073,3.44686,0.475605,0.100029,0.930615,1.43146
3.59,-0.00511489,3.43965,0.475652,0.0996428,0.93161,1.43084
