time,velocity,ratio,centerX,Xmax,Xmin,Ymax
0,0,1,2.75,1.75,3.75,1
0.01,0.019376,0.999991,2.74991,1.74989,3.74993,1.00001
0.02,0.0384489,1.00001,2.74963,1.74962,3.74963,1.00001
0.03,0.057232,1.00003,2.74917,1.74916,3.74915,1.00002
0.04,0.0757429,1.00005,2.74851,1.74851,3.74847,1.00003
0.05,0.0939557,1.00008,2.74768,1.74769,3.7476,1.00003
0.06,0.111916,1.00011,2.74666,1.74669,3.74655,1.00004
0.07,0.129622,1.00014,2.74547,1.7455,3.74531,1.00004
0.08,0.147056,1.00017,2.7441,1.74416,3.7439,1.00004
0.09,0.164249,1.00021,2.74256,1.74265,3.74231,1.00004
0.1,0.181201,1.00028,2.74084,1.74098,3.74055,1.00007
0.11,0.197914,1.00036,2.73896,1.73915,3.73863,1.0001
0.12,0.214398,1.00044,2.73691,1.73716,3.73655,1.00013
0.13,0.230617,1.00051,2.7347,1.73502,3.73433,1.00016
0.14,0.246638,1.00057,2.73232,1.73274,3.73197,1.00019
0.15,0.262428,1.00065,2.72979,1.73029,3.72944,1.00022
0.16,0.278001,1.00075,2.7271,1.72771,3.72672,1.00026
0.17,0.293358,1.00091,2.72425,1.72499,3.7238,1.00031
0.18,0.308474,1.00111,2.72126,1.72214,3.7207,1.00039
0.19,0.32338,1.00132,2.71811,1.71916,3.71744,1.00046
0.2,0.338106,1.00154,2.71481,1.71605,3.71405,1.00054
0.21,0.352602,1.00179,2.71137,1.7128,3.71045,1.00061
0.22,0.36687,1.00212,2.70778,1.70942,3.70663,1.00072
0.23,0.380936,1.00251,2.70406,1.70594,3.70263,1.00085
0.24,0.394798,1.00289,2.70019,1.70235,3.69852,1.00097
0.25,0.408452,1.00329,2.69618,1.69864,3.69425,1.00109
0.26,0.421883,1.00377,2.69204,1.69479,3.68975,1.00124
0.27,0.435121,1.0043,2.68776,1.69082,3.68506,1.00141
0.28,0.44811,1.00484,2.68336,1.68674,3.68026,1.00159
0.29,0.460918,1.00543,2.67882,1.68257,3.67526,1.00175
0.3,0.473533,1.00615,2.67416,1.67831,3.67003,1.00198
0.31,0.485604,1.00685,2.66937,1.67396,3.66476,1.00221
0.32,0.497389,1.00755,2.66447,1.66952,3.65937,1.00244
0.33,0.509393,1.00838,2.65944,1.66499,3.65375,1.00271
0.34,0.521161,1.00924,2.6543,1.66036,3.64799,1.003
0.35,0.532764,1.01015,2.64904,1.65566,3.64206,1.00328
0.36,0.54418,1.01117,2.64366,1.65087,3.63591,1.00361
0.37,0.55537,1.01225,2.63817,1.64601,3.62962,1.00395
0.38,0.566312,1.01337,2.63257,1.64108,3.62314,1.00429
0.39,0.577108,1.01463,2.62686,1.63607,3.61646,1.00468
0.4,0.587614,1.01593,2.62105,1.63095,3.60959,1.00508
0.41,0.597971,1.01723,2.61513,1.62574,3.6026,1.00547
0.42,0.608091,1.01864,2.60911,1.62046,3.59551,1.00593
0.43,0.617842,1.02008,2.60298,1.61514,3.58828,1.00638
0.44,0.627573,1.0216,2.59676,1.60977,3.58088,1.00684
0.45,0.637151,1.02324,2.59045,1.60433,3.57328,1.00736
0.46,0.646448,1.02493,2.58404,1.59881,3.5655,1.00786
0.47,0.655503,1.02674,2.57753,1.59324,3.55752,1.0084
0.48,0.664169,1.02865,2.57094,1.5876,3.54934,1.00897
0.49,0.672846,1.0306,2.56426,1.58191,3.541,1.00952
0.5,0.681268,1.03268,2.5575,1.57618,3.53253,1.01014
0.51,0.6894,1.03478,2.55065,1.57036,3.5239,1.01075
0.52,0.697361,1.03698,2.54372,1.56445,3.51512,1.01139
0.53,0.705081,1.03925,2.53672,1.5585,3.50617,1.01206
0.54,0.712628,1.0416,2.52964,1.55251,3.49705,1.01272
0.55,0.719951,1.04411,2.52248,1.54649,3.48774,1.01344
0.56,0.727086,1.04666,2.51525,1.54041,3.47827,1.01413
0.57,0.734022,1.04931,2.50795,1.53428,3.46868,1.01489
0.58,0.740735,1.05202,2.50058,1.52812,3.45897,1.01564
0.59,0.74728,1.05481,2.49315,1.52192,3.44908,1.0164
0.6,0.753477,1.05773,2.48565,1.5157,3.43906,1.0172
0.61,0.759553,1.06071,2.47809,1.50944,3.42887,1.01798
0.62,0.764671,1.06383,2.47047,1.50309,3.4185,1.01884
0.63,0.770202,1.06696,2.4628,1.49668,3.408,1.01965
0.64,0.77555,1.07027,2.45508,1.49027,3.39736,1.02055
0.65,0.780584,1.07364,2.4473,1.48387,3.38657,1.02142
0.66,0.785518,1.07714,2.43948,1.47743,3.37567,1.02233
0.67,0.790306,1.08073,2.4316,1.47098,3.3646,1.02325
0.68,0.794984,1.08443,2.42368,1.46451,3.3534,1.02418
0.69,0.799464,1.08819,2.41571,1.45799,3.34212,1.02514
0.7,0.803804,1.09202,2.4077,1.45148,3.33073,1.02609
0.71,0.808098,1.09597,2.39964,1.44491,3.31921,1.02709
0.72,0.812175,1.09995,2.39155,1.43828,3.30756,1.02805
0.73,0.816049,1.10411,2.38341,1.43164,3.29574,1.02909
0.74,0.819754,1.10829,2.37524,1.42498,3.28385,1.03008
0.75,0.823313,1.11261,2.36702,1.41832,3.27185,1.03113
0.76,0.826548,1.11697,2.35878,1.41162,3.25975,1.03215
0.77,0.829768,1.12146,2.3505,1.40492,3.24754,1.03321
0.78,0.832884,1.12602,2.34219,1.39819,3.23523,1.03427
0.79,0.835807,1.13068,2.33385,1.39147,3.22283,1.03535
0.8,0.83833,1.13543,2.32548,1.38474,3.21037,1.03644
0.81,0.840843,1.14022,2.31709,1.37794,3.19783,1.03754
0.82,0.843408,1.14509,2.30867,1.3711,3.18522,1.03866
0.83,0.845773,1.15005,2.30023,1.36429,3.1725,1.03977
0.84,0.848061,1.15515,2.29176,1.35749,3.15973,1.04092
0.85,0.850054,1.16025,2.28328,1.35068,3.14689,1.04203
0.86,0.852,1.16551,2.27477,1.34386,3.134,1.04322
0.87,0.853853,1.17077,2.26624,1.33702,3.12105,1.04434
0.88,0.855498,1.17617,2.2577,1.33017,3.10803,1.04554
0.89,0.857025,1.18159,2.24914,1.32332,3.09499,1.04669
0.9,0.85792,1.18706,2.24057,1.31641,3.08192,1.04788
0.91,0.859375,1.19256,2.23198,1.30949,3.06881,1.04905
0.92,0.86076,1.19818,2.22338,1.30257,3.05566,1.05026
0.93,0.862028,1.20387,2.21477,1.29566,3.04246,1.05146
0.94,0.862965,1.2096,2.20615,1.28873,3.02927,1.05268
0.95,0.864041,1.2154,2.19752,1.2818,3.01604,1.0539
0.96,0.864964,1.22125,2.18888,1.27486,3.0028,1.05513
0.97,0.865796,1.22719,2.18023,1.26793,2.98954,1.05637
0.98,0.866508,1.23316,2.17157,1.26101,2.97627,1.0576
0.99,0.867246,1.23919,2.1629,1.25404,2.96299,1.05886
1,0.867862,1.24519,2.15423,1.24701,2.94971,1.06009
1.01,0.868429,1.25131,2.14555,1.24002,2.93642,1.06137
1.02,0.868903,1.25745,2.13687,1.23306,2.92315,1.0626
1.03,0.869245,1.26368,2.12818,1.2261,2.90987,1.06387
1.04,0.869562,1.26989,2.11949,1.21915,2.89661,1.06509
1.05,0.869829,1.27623,2.11079,1.2122,2.88336,1.06639
1.06,0.870088,1.28253,2.1021,1.20524,2.87012,1.06763
1.07,0.870249,1.28894,2.0934,1.19829,2.85691,1.06893
1.08,0.870281,1.29529,2.0847,1.1913,2.84372,1.07019
1.09,0.870409,1.30172,2.07599,1.18428,2.83055,1.07149
1.1,0.870408,1.30813,2.06729,1.17729,2.81742,1.07275
1.11,0.870373,1.31456,2.05859,1.17031,2.8044,1.07406
1.12,0.87016,1.32091,2.04989,1.16331,2.79149,1.07534
1.13,0.870064,1.32725,2.04119,1.15633,2.77868,1.07663
1.14,0.869899,1.33354,2.0325,1.14934,2.76598,1.07792
1.15,0.869448,1.33981,2.0238,1.14238,2.75336,1.0792
1.16,0.869282,1.34607,2.01511,1.13543,2.74084,1.0805
1.17,0.868974,1.35225,2.00642,1.12843,2.72841,1.08179
1.18,0.868481,1.3584,1.99774,1.1214,2.71608,1.0831
1.19,0.868088,1.36452,1.98906,1.11442,2.70383,1.0844
1.2,0.867694,1.37068,1.98038,1.10746,2.69167,1.08572
1.21,0.867249,1.37675,1.97171,1.1005,2.67959,1.08701
1.22,0.866782,1.38286,1.96304,1.09355,2.66759,1.08834
1.23,0.866213,1.38889,1.95438,1.0866,2.65566,1.08963
1.24,0.865709,1.39499,1.94572,1.07966,2.64379,1.09097
1.25,0.865111,1.40097,1.93707,1.07273,2.63201,1.09225
1.26,0.864515,1.40698,1.92843,1.06575,2.62029,1.0936
1.27,0.863861,1.41286,1.91978,1.05877,2.60863,1.09487
1.28,0.863183,1.41882,1.91115,1.0518,2.59705,1.09622
1.29,0.862353,1.42472,1.90253,1.04487,2.58551,1.09749
1.3,0.86168,1.43068,1.89391,1.03792,2.57405,1.09885
1.31,0.860926,1.43654,1.8853,1.031,2.56265,1.10014
1.32,0.86008,1.44248,1.8767,1.02407,2.5513,1.10149
1.33,0.859308,1.44835,1.8681,1.01718,2.54001,1.1028
1.34,0.85847,1.4543,1.85952,1.0103,2.52876,1.10415
1.35,0.857621,1.46012,1.85094,1.00338,2.51758,1.10546
1.36,0.856652,1.46594,1.84237,0.996429,2.50645,1.1068
1.37,0.855776,1.47177,1.83381,0.989533,2.49537,1.10812
1.38,0.854849,1.47764,1.82526,0.98268,2.48435,1.10946
1.39,0.853929,1.48349,1.81671,0.975833,2.47334,1.11077
1.4,0.852983,1.48932,1.80818,0.969004,2.46243,1.1121
1.41,0.851679,1.49518,1.79966,0.962184,2.45153,1.11342
1.42,0.850726,1.50104,1.79115,0.95538,2.44069,1.11476
1.43,0.849658,1.50691,1.78265,0.948596,2.4299,1.1161
1.44,0.848605,1.51276,1.77416,0.941778,2.41913,1.11744
1.45,0.847433,1.51858,1.76568,0.934952,2.40841,1.11878
1.46,0.846383,1.5244,1.75722,0.928155,2.39774,1.12012
1.47,0.84521,1.53028,1.74876,0.921392,2.3871,1.12147
1.48,0.844083,1.53611,1.74032,0.914633,2.37651,1.1228
1.49,0.842791,1.54199,1.73189,0.907892,2.36596,1.12416
1.5,0.841589,1.54785,1.72347,0.901167,2.35543,1.12549
1.51,0.840385,1.55376,1.71506,0.894461,2.34494,1.12685
1.52,0.839034,1.55962,1.70666,0.887797,2.33452,1.12817
1.53,0.837625,1.56553,1.69828,0.881118,2.32412,1.12954
1.54,0.836368,1.57136,1.68991,0.874411,2.31375,1.13086
1.55,0.834967,1.57727,1.68156,0.867731,2.30343,1.13224
1.56,0.833704,1.58316,1.67322,0.86111,2.29314,1.13357
1.57,0.832213,1.58918,1.66489,0.854517,2.28287,1.13495
1.58,0.830877,1.59512,1.65658,0.847937,2.27263,1.13628
1.59,0.829478,1.60118,1.64828,0.841384,2.26244,1.13768
1.6,0.828056,1.60712,1.63999,0.834836,2.25228,1.139
1.61,0.826507,1.61322,1.63172,0.828322,2.24215,1.14041
1.62,0.824935,1.6192,1.62347,0.821816,2.23204,1.14172
1.63,0.823401,1.6253,1.61522,0.815291,2.22195,1.14312
1.64,0.821923,1.63125,1.607,0.80878,2.21193,1.14444
1.65,0.820256,1.63739,1.59879,0.802313,2.20194,1.14586
1.66,0.81869,1.64343,1.5906,0.795874,2.19197,1.1472
1.67,0.817121,1.64963,1.58242,0.789444,2.18202,1.14862
1.68,0.815521,1.65574,1.57426,0.783043,2.17211,1.14996
1.69,0.813791,1.66199,1.56612,0.776676,2.16223,1.15139
1.7,0.811997,1.66817,1.55799,0.770338,2.15239,1.15275
1.71,0.810253,1.67452,1.54988,0.764056,2.14257,1.15417
1.72,0.808527,1.68077,1.54179,0.757769,2.13277,1.15553
1.73,0.806792,1.68708,1.53371,0.751462,2.123,1.15695
1.74,0.804985,1.69329,1.52566,0.745166,2.11327,1.1583
1.75,0.803229,1.69968,1.51762,0.738943,2.10357,1.15972
1.76,0.801384,1.70605,1.5096,0.732761,2.0939,1.16108
1.77,0.799449,1.71251,1.50159,0.726597,2.08426,1.16251
1.78,0.797378,1.71895,1.49361,0.72047,2.07465,1.16389
1.79,0.795458,1.72551,1.48565,0.714377,2.06507,1.16532
1.8,0.793443,1.73203,1.47771,0.708306,2.05552,1.16671
1.81,0.791357,1.73866,1.46978,0.702284,2.046,1.16813
1.82,0.789392,1.74525,1.46188,0.696265,2.03651,1.16953
1.83,0.787383,1.75186,1.454,0.690245,2.02706,1.17096
1.84,0.78538,1.75847,1.44614,0.684242,2.01763,1.17236
1.85,0.783207,1.76515,1.4383,0.678293,2.00823,1.17376
1.86,0.781131,1.77189,1.43048,0.672388,1.99885,1.17517
1.87,0.779051,1.77868,1.42268,0.666514,1.98951,1.17659
1.88,0.776814,1.78552,1.4149,0.660667,1.98019,1.17801
1.89,0.77468,1.79241,1.40714,0.654864,1.97091,1.17944
1.9,0.772528,1.79933,1.39941,0.649089,1.96166,1.18088
1.91,0.770389,1.80632,1.3917,0.643368,1.95245,1.18231
1.92,0.767984,1.8134,1.38401,0.637697,1.94327,1.18376
1.93,0.765761,1.82045,1.37634,0.632025,1.93411,1.18519
1.94,0.763477,1.82753,1.36869,0.626346,1.92498,1.18664
1.95,0.761128,1.8346,1.36108,0.620697,1.91587,1.18806
1.96,0.758775,1.84184,1.35347,0.615127,1.90679,1.18952
1.97,0.756365,1.84909,1.3459,0.60961,1.89774,1.19093
1.98,0.753758,1.85647,1.33835,0.604125,1.88872,1.1924
1.99,0.751426,1.86383,1.33083,0.598678,1.87974,1.19384
2,0.748948,1.87132,1.32333,0.593273,1.8708,1.19533
2.01,0.746541,1.87878,1.31585,0.587901,1.86188,1.19676
2.02,0.74381,1.88641,1.3084,0.58257,1.85299,1.19827
2.03,0.741277,1.894,1.30097,0.57729,1.84414,1.19971
2.04,0.738685,1.90174,1.29358,0.572026,1.83531,1.20122
2.05,0.73598,1.90935,1.28621,0.566769,1.82652,1.20265
2.06,0.733403,1.91712,1.27886,0.561535,1.81776,1.20417
2.07,0.730728,1.92484,1.27154,0.556363,1.80904,1.2056
2.08,0.727962,1.93282,1.26425,0.551241,1.80034,1.20714
2.09,0.725294,1.9407,1.25698,0.546165,1.79167,1.20858
2.1,0.722639,1.94883,1.24974,0.541119,1.78303,1.21014
2.11,0.71987,1.95684,1.24253,0.536114,1.77443,1.21159
2.12,0.717089,1.96511,1.23535,0.531159,1.76585,1.21316
2.13,0.714301,1.97328,1.22819,0.526246,1.75732,1.21463
2.14,0.711429,1.98169,1.22106,0.521379,1.74881,1.2162
2.15,0.708498,1.99006,1.21397,0.516574,1.74034,1.21768
2.16,0.705474,1.99861,1.2069,0.511816,1.7319,1.21924
2.17,0.702617,2.00706,1.19986,0.507059,1.7235,1.22073
2.18,0.699703,2.0156,1.19285,0.502303,1.71513,1.22228
2.19,0.696756,2.0241,1.18587,0.49757,1.7068,1.22379
2.2,0.693714,2.03282,1.17892,0.492923,1.6985,1.22536
2.21,0.690639,2.04159,1.17199,0.488341,1.69024,1.2269
2.22,0.687683,2.0505,1.1651,0.48381,1.68202,1.22846
2.23,0.684647,2.05947,1.15824,0.479317,1.67382,1.23003
2.24,0.681611,2.06849,1.15141,0.474855,1.66566,1.23159
2.25,0.67841,2.07764,1.14461,0.470443,1.65754,1.23317
2.26,0.675355,2.08679,1.13785,0.466077,1.64944,1.23472
2.27,0.672172,2.09608,1.13111,0.461744,1.64139,1.23631
2.28,0.669083,2.10534,1.1244,0.457459,1.63337,1.23784
2.29,0.665803,2.11485,1.11773,0.453231,1.62539,1.23947
2.3,0.662451,2.12427,1.11109,0.449033,1.61744,1.24101
2.31,0.659262,2.13391,1.10448,0.444844,1.60953,1.24267
2.32,0.655989,2.14338,1.09791,0.440677,1.60165,1.24421
2.33,0.652771,2.15315,1.09136,0.436546,1.59381,1.24588
2.34,0.649373,2.16284,1.08485,0.432477,1.58601,1.24745
2.35,0.646055,2.17279,1.07837,0.428463,1.57824,1.24911
2.36,0.642771,2.18269,1.07193,0.424496,1.57052,1.2507
2.37,0.639432,2.19276,1.06552,0.420582,1.56283,1.25234
2.38,0.636,2.20284,1.05915,0.416695,1.55518,1.25395
2.39,0.632376,2.21304,1.0528,0.412852,1.54756,1.25558
2.4,0.628915,2.22338,1.0465,0.409062,1.53999,1.25724
2.41,0.62538,2.23377,1.04022,0.405325,1.53245,1.25887
2.42,0.622029,2.24433,1.03399,0.401627,1.52495,1.26056
2.43,0.618594,2.25485,1.02778,0.397983,1.51749,1.26216
2.44,0.615094,2.2657,1.02162,0.394397,1.51007,1.26389
2.45,0.611457,2.27647,1.01548,0.390872,1.50269,1.26551
2.46,0.60789,2.28749,1.00939,0.387387,1.49535,1.26723
2.47,0.604317,2.29838,1.00333,0.383913,1.48805,1.26886
2.48,0.600814,2.30942,0.997307,0.380452,1.48079,1.27057
2.49,0.597294,2.32045,0.991314,0.377011,1.47356,1.27225
2.5,0.593616,2.33156,0.985361,0.373601,1.46638,1.27394
2.51,0.590038,2.34291,0.979443,0.370275,1.45923,1.27566
2.52,0.586481,2.35427,0.973559,0.367011,1.45213,1.27733
2.53,0.582854,2.36594,0.967715,0.3638,1.44506,1.2791
2.54,0.579235,2.37751,0.9619,0.36064,1.43804,1.28076
2.55,0.575586,2.38936,0.956132,0.35752,1.43106,1.28253
2.56,0.571916,2.40112,0.950389,0.354427,1.42412,1.28422
2.57,0.568257,2.41307,0.944693,0.351377,1.41721,1.28597
2.58,0.564445,2.42511,0.939027,0.348371,1.41035,1.28771
2.59,0.56077,2.43721,0.933403,0.345414,1.40353,1.28943
2.6,0.556957,2.44957,0.927814,0.342505,1.39675,1.29123
2.61,0.553233,2.46179,0.922261,0.33963,1.39002,1.29292
2.62,0.54949,2.4744,0.916751,0.336797,1.38332,1.29476
2.63,0.545667,2.48692,0.91127,0.334011,1.37667,1.29651
2.64,0.541839,2.49957,0.905837,0.33127,1.37007,1.29827
2.65,0.538042,2.51235,0.900435,0.328575,1.3635,1.30005
2.66,0.53432,2.52508,0.895075,0.325914,1.35698,1.30176
2.67,0.53052,2.53809,0.889751,0.323271,1.35049,1.30359
2.68,0.526791,2.55094,0.88446,0.320653,1.34405,1.30532
2.69,0.522847,2.56407,0.879217,0.318064,1.33765,1.30715
2.7,0.519054,2.57719,0.874003,0.315508,1.3313,1.30894
2.71,0.515223,2.59034,0.868835,0.312989,1.32499,1.31071
2.72,0.511438,2.60378,0.863701,0.310517,1.31872,1.31257
2.73,0.507562,2.61708,0.858603,0.308104,1.31249,1.31429
2.74,0.503768,2.63071,0.85355,0.305728,1.30631,1.31613
2.75,0.499901,2.64433,0.848527,0.303394,1.30018,1.31791
2.76,0.496117,2.65802,0.84355,0.3011,1.29408,1.31969
2.77,0.492173,2.67199,0.838608,0.298845,1.28803,1.32155
2.78,0.488327,2.68584,0.833701,0.296633,1.28203,1.32331
2.79,0.484474,2.69997,0.828842,0.294453,1.27607,1.32518
2.8,0.480566,2.71412,0.824013,0.292302,1.27016,1.32701
2.81,0.47658,2.72818,0.819227,0.290189,1.26429,1.32876
2.82,0.472696,2.74261,0.814482,0.288113,1.25846,1.33065
2.83,0.468829,2.75691,0.80977,0.286075,1.25268,1.33243
2.84,0.464953,2.77138,0.805104,0.284074,1.24695,1.33425
2.85,0.461011,2.78603,0.800473,0.282112,1.24125,1.3361
2.86,0.457134,2.80056,0.795879,0.280186,1.23561,1.33786
2.87,0.453257,2.81544,0.791332,0.27829,1.23001,1.33975
2.88,0.449376,2.8303,0.786815,0.276426,1.22444,1.34159
2.89,0.445364,2.84508,0.782338,0.274597,1.21893,1.34335
2.9,0.441552,2.86024,0.777908,0.272801,1.21346,1.34526
2.91,0.437669,2.87525,0.773507,0.27104,1.20804,1.34705
2.92,0.433768,2.89031,0.769149,0.269314,1.20267,1.34884
2.93,0.429831,2.90565,0.764834,0.267621,1.19734,1.35071
2.94,0.425964,2.92089,0.760551,0.265962,1.19205,1.3525
2.95,0.422142,2.93626,0.75631,0.264333,1.18682,1.35432
2.96,0.418298,2.95178,0.752111,0.262723,1.18162,1.3562
2.97,0.414331,2.96716,0.747943,0.261132,1.17648,1.35799
2.98,0.410542,2.98265,0.743817,0.259562,1.17138,1.35982
2.99,0.406723,2.9982,0.739735,0.258008,1.16633,1.36166
3,0.402893,3.01357,0.735682,0.256474,1.16132,1.36341
3.01,0.399018,3.02909,0.731669,0.254963,1.15636,1.36521
3.02,0.395149,3.0447,0.727704,0.253476,1.15145,1.36703
3.03,0.391308,3.06019,0.723767,0.252017,1.14658,1.36877
3.04,0.38745,3.07583,0.719869,0.250581,1.14177,1.37057
3.05,0.383608,3.09161,0.71602,0.249177,1.13699,1.37239
3.06,0.379783,3.10739,0.712201,0.24784,1.13227,1.37413
3.07,0.37594,3.12327,0.708417,0.246538,1.12759,1.37588
3.08,0.372105,3.13935,0.704681,0.245264,1.12295,1.37768
3.09,0.368305,3.15528,0.700979,0.244019,1.11836,1.3794
3.1,0.36455,3.1712,0.697309,0.242799,1.11382,1.3811
3.11,0.360739,3.18742,0.69368,0.241606,1.10933,1.3829
3.12,0.357011,3.2035,0.690097,0.240437,1.10489,1.38464
3.13,0.353261,3.21947,0.686542,0.239294,1.10049,1.38629
3.14,0.349447,3.23583,0.683022,0.238177,1.09613,1.38809
3.15,0.345653,3.2521,0.679551,0.237085,1.09182,1.38984
3.16,0.341931,3.26824,0.676115,0.236017,1.08755,1.39151
3.17,0.338177,3.28444,0.672709,0.234974,1.08334,1.3932
3.18,0.334493,3.30079,0.669343,0.233955,1.07916,1.39493
3.19,0.330815,3.31698,0.666022,0.232958,1.07504,1.39658
3.2,0.327049,3.33304,0.662732,0.231984,1.07096,1.39817
3.21,0.323352,3.34948,0.659474,0.23103,1.06693,1.39992
3.22,0.319709,3.36577,0.656255,0.230098,1.06295,1.40159
3.23,0.315955,3.38191,0.653082,0.229187,1.05901,1.4032
3.24,0.312292,3.3981,0.649939,0.228296,1.05513,1.40483
3.25,0.308639,3.41448,0.646828,0.227427,1.05129,1.40653
3.26,0.305044,3.43061,0.643755,0.226577,1.0475,1.40814
3.27,0.301415,3.44657,0.640728,0.225747,1.04376,1.40967
3.28,0.29787,3.4627,0.637732,0.224937,1.04006,1.41127
3.29,0.294276,3.47872,0.634765,0.224106,1.03641,1.41289
3.3,0.290732,3.49444,0.631835,0.223261,1.0328,1.41445
3.31,0.287213,3.50985,0.62895,0.222408,1.02925,1.41594
3.32,0.283633,3.52539,0.626099,0.221548,1.02573,1.41753
3.33,0.280106,3.54082,0.623278,0.220682,1.02226,1.41912
3.34,0.276552,3.55595,0.62049,0.219811,1.01884,1.42065
3.35,0.273056,3.5708,0.617743,0.218936,1.01547,1.42212
3.36,0.269587,3.58558,0.615036,0.218054,1.01214,1.42363
3.37,0.266085,3.60028,0.612357,0.217166,1.00885,1.42515
3.38,0.26265,3.61466,0.609707,0.216271,1.00562,1.4266
3.39,0.259216,3.62871,0.607091,0.21537,1.00242,1.428
3.4,0.255812,3.64264,0.604515,0.214463,0.99928,1.4294
3.41,0.25241,3.65661,0.601977,0.213553,0.996175,1.43087
3.42,0.249038,3.67027,0.599467,0.212638,0.993116,1.43228
3.43,0.245696,3.68359,0.596989,0.211718,0.990109,1.43364
3.44,0.242354,3.69659,0.594542,0.210792,0.987151,1.43494
3.45,0.239032,3.70969,0.592133,0.209863,0.984241,1.43635
3.46,0.235738,3.72258,0.589763,0.20893,0.981372,1.43774
3.47,0.232462,3.73514,0.587423,0.207994,0.978541,1.43905
3.48,0.229217,3.74741,0.585113,0.207054,0.97575,1.44031
3.49,0.225983,3.75941,0.582832,0.20611,0.973001,1.44153
3.5,0.222763,3.77153,0.580586,0.205162,0.970296,1.44286
3.51,0.219547,3.78331,0.578379,0.204213,0.967639,1.44414
3.52,0.216341,3.79481,0.576205,0.203263,0.965023,1.44536
3.53,0.213153,3.806,0.574058,0.20231,0.962447,1.44654
3.54,0.209973,3.81689,0.57194,0.201347,0.959915,1.44768
3.55,0.206814,3.82782,0.56985,0.20037,0.957426,1.44894
3.56,0.203682,3.83844,0.567792,0.199391,0.954982,1.45014
3.57,0.200573,3.84873,0.565769,0.198411,0.952583,1.4513
3.58,0.197462,3.85866,0.563781,0.197419,0.950229,1.45242
3.59,0.194377,3.86827,0.561821,0.196428,0.947917,1.45348
3.6,0.191329,3.87781,0.55989,0.19544,0.945649,1.45458
3.61,0.188301,3.88711,0.557987,0.19444,0.943424,1.45569
3.62,0.185291,3.89611,0.556114,0.193446,0.941244,1.45675
3.63,0.182309,3.90478,0.554272,0.192453,0.939107,1.45776
3.64,0.179351,3.91312,0.552464,0.191458,0.937015,1.45873
3.65,0.17642,3.9212,0.550689,0.190473,0.934966,1.45965
3.66,0.17352,3.92926,0.548941,0.189479,0.932959,1.46066
3.67,0.17062,3.93715,0.547221,0.188502,0.930995,1.46165
