time,velocity,ratio,centerX,Xmax,Xmin,Ymax
0,0,0.99998,1.1,0.1,2.1,0.99998
0.01,0.0154976,1.00003,1.09993,0.0999875,2.09991,0.999989
0.02,0.0310138,1.00017,1.0997,0.0999499,2.09965,1.00001
0.03,0.0462366,1.0004,1.09932,0.0998861,2.0992,1.00006
0.04,0.0614957,1.00073,1.09878,0.0998045,2.09858,1.00012
0.05,0.0760204,1.00116,1.0981,0.0996978,2.09778,1.0002
0.06,0.0909702,1.00169,1.09727,0.0995623,2.09679,1.0003
0.07,0.105776,1.00232,1.09629,0.0994084,2.09563,1.00042
0.08,0.120289,1.00304,1.09516,0.099228,2.0943,1.00057
0.09,0.134954,1.00388,1.09389,0.0990369,2.09275,1.00072
0.1,0.14976,1.00479,1.09247,0.0988152,2.09109,1.00091
0.11,0.163957,1.00581,1.09091,0.0985251,2.08919,1.00111
0.12,0.178289,1.00691,1.0892,0.0982169,2.08713,1.00133
0.13,0.192118,1.00813,1.08735,0.0978364,2.08488,1.0016
0.14,0.206318,1.00945,1.08537,0.0973989,2.08245,1.0019
0.15,0.220349,1.01086,1.08324,0.0969121,2.07983,1.00222
0.16,0.234028,1.01237,1.08097,0.0963879,2.07704,1.00257
0.17,0.247442,1.01397,1.07857,0.095804,2.07405,1.00294
0.18,0.261289,1.01567,1.07603,0.0951612,2.07088,1.00334
0.19,0.274895,1.01752,1.07335,0.0944616,2.06751,1.00381
0.2,0.288245,1.01945,1.07054,0.0936701,2.06396,1.00431
0.21,0.301549,1.02148,1.0676,0.0928127,2.0602,1.00482
0.22,0.314521,1.0236,1.06452,0.0918796,2.05624,1.00536
0.23,0.327444,1.02589,1.06131,0.0908619,2.05203,1.00597
0.24,0.340218,1.0283,1.05798,0.089838,2.04767,1.00661
0.25,0.352733,1.0308,1.05452,0.0887382,2.0431,1.00728
0.26,0.364869,1.03341,1.05094,0.0875802,2.03836,1.00798
0.27,0.376991,1.0362,1.04723,0.0863557,2.0334,1.00876
0.28,0.388743,1.03914,1.0434,0.0851182,2.02822,1.00958
0.29,0.399884,1.0422,1.03946,0.083769,2.0228,1.01043
0.3,0.411057,1.04543,1.03541,0.0824079,2.01716,1.01133
0.31,0.422198,1.04883,1.03124,0.0810303,2.01135,1.01229
0.32,0.432968,1.05228,1.02697,0.0795589,2.0054,1.01326
0.33,0.443632,1.05595,1.02258,0.0780607,1.99913,1.01428
0.34,0.453981,1.05988,1.0181,0.0765554,1.99261,1.01539
0.35,0.46412,1.06386,1.01351,0.0749466,1.98591,1.0165
0.36,0.473763,1.068,1.00882,0.0733623,1.97902,1.01762
0.37,0.483218,1.07237,1.00404,0.0717343,1.9719,1.01884
0.38,0.492453,1.07696,0.999161,0.0701149,1.96449,1.02008
0.39,0.50141,1.08163,0.994193,0.0684588,1.95694,1.02132
0.4,0.509956,1.08655,0.989138,0.066819,1.94916,1.02263
0.41,0.518268,1.0917,0.983998,0.0651652,1.94111,1.02399
0.42,0.526262,1.09697,0.978777,0.0634613,1.93288,1.02534
0.43,0.533708,1.10249,0.973479,0.0618735,1.92447,1.02675
0.44,0.540968,1.10827,0.968107,0.0601772,1.91569,1.0282
0.45,0.548072,1.11414,0.962663,0.0584978,1.90684,1.02966
0.46,0.554722,1.12028,0.95715,0.0568794,1.89776,1.03115
0.47,0.561067,1.12661,0.951573,0.0552039,1.88844,1.03267
0.48,0.567211,1.13316,0.945932,0.0536324,1.87896,1.03419
0.49,0.573005,1.13977,0.940233,0.0519467,1.8694,1.03574
0.5,0.578466,1.1468,0.934476,0.0503839,1.85949,1.03734
0.51,0.583489,1.15405,0.928667,0.0489486,1.84945,1.03893
0.52,0.58826,1.16141,0.922809,0.0474167,1.83933,1.04057
0.53,0.592745,1.16917,0.916905,0.0460633,1.82894,1.04225
0.54,0.596963,1.1769,0.910957,0.0446176,1.81859,1.04389
0.55,0.600872,1.18515,0.904968,0.0433992,1.80796,1.04563
0.56,0.604486,1.19353,0.898942,0.0420618,1.7971,1.04735
0.57,0.607732,1.202,0.892882,0.0408632,1.78643,1.04909
0.58,0.610551,1.21081,0.886792,0.0397287,1.77559,1.0509
0.59,0.613313,1.21977,0.880673,0.0385775,1.76461,1.05268
0.6,0.615673,1.22892,0.874529,0.037606,1.75378,1.05453
0.61,0.617851,1.23816,0.868362,0.0365308,1.74291,1.05638
0.62,0.619707,1.24776,0.862175,0.0356911,1.73197,1.05827
0.63,0.621307,1.25737,0.85597,0.0346271,1.721,1.0602
0.64,0.622666,1.26712,0.849751,0.0338962,1.71035,1.06214
0.65,0.623762,1.27708,0.843519,0.0330203,1.69947,1.0641
0.66,0.624568,1.28733,0.837278,0.0322795,1.68858,1.0661
0.67,0.625141,1.29742,0.831031,0.0315584,1.67813,1.06815
0.68,0.625425,1.30801,0.824779,0.0309501,1.66734,1.07021
0.69,0.625456,1.31858,0.818525,0.03023,1.65671,1.07232
0.7,0.625227,1.32901,0.812273,0.0297745,1.64666,1.07443
0.71,0.624759,1.3398,0.806024,0.029134,1.63626,1.07661
0.72,0.624105,1.35075,0.79978,0.02872,1.6261,1.07883
0.73,0.623143,1.36138,0.793545,0.0281939,1.61635,1.08104
0.74,0.621911,1.37277,0.78732,0.0278712,1.6062,1.08334
0.75,0.620458,1.38369,0.781109,0.0274118,1.59656,1.08561
0.76,0.618691,1.39499,0.774914,0.0271359,1.58699,1.088
0.77,0.616702,1.40653,0.768738,0.0267362,1.57715,1.09035
0.78,0.614477,1.41788,0.762582,0.0265303,1.568,1.09281
0.79,0.611919,1.42955,0.756451,0.026281,1.55858,1.09525
0.8,0.609154,1.44124,0.750346,0.0260184,1.54931,1.09771
0.81,0.606145,1.45286,0.74427,0.0257629,1.54042,1.10029
0.82,0.602891,1.46482,0.738225,0.0254888,1.53118,1.10278
0.83,0.599387,1.47653,0.732214,0.025232,1.52259,1.10545
0.84,0.595616,1.48856,0.72624,0.0249328,1.51363,1.10801
0.85,0.591625,1.50084,0.720304,0.0246601,1.50481,1.11073
0.86,0.587345,1.51282,0.714409,0.024338,1.49629,1.1134
0.87,0.582843,1.52543,0.708559,0.0240534,1.48751,1.1162
0.88,0.578087,1.53754,0.702754,0.0237529,1.47932,1.119
0.89,0.573068,1.55023,0.696999,0.0234587,1.47078,1.12184
0.9,0.567814,1.56264,0.691295,0.023166,1.46267,1.12471
0.91,0.562289,1.57539,0.685644,0.0228575,1.45433,1.12756
0.92,0.556546,1.58822,0.68005,0.0225662,1.44622,1.13054
0.93,0.550537,1.60101,0.674515,0.022245,1.43812,1.13341
0.94,0.544385,1.61424,0.66904,0.0219955,1.43005,1.13647
0.95,0.537867,1.62713,0.663628,0.0216564,1.42215,1.13939
0.96,0.531187,1.64033,0.658282,0.0214042,1.41437,1.14246
0.97,0.524281,1.65313,0.653005,0.0210846,1.40687,1.14544
0.98,0.517156,1.66655,0.647797,0.0208144,1.3991,1.14849
0.99,0.509796,1.6798,0.642662,0.0205259,1.39153,1.15151
1,0.502237,1.69318,0.637601,0.0202825,1.38403,1.15453
1.01,0.494458,1.70639,0.632617,0.0199557,1.37667,1.15755
1.02,0.486421,1.71937,0.627712,0.0197322,1.36961,1.16047
1.03,0.478173,1.73265,0.622888,0.0194398,1.36241,1.16345
1.04,0.469719,1.74583,0.618147,0.019213,1.35531,1.16629
1.05,0.461068,1.75896,0.613493,0.01892,1.34832,1.16918
1.06,0.452302,1.77176,0.608925,0.0187109,1.34165,1.17196
1.07,0.443243,1.78444,0.604446,0.018417,1.33503,1.17471
1.08,0.434004,1.79688,0.600059,0.0182203,1.32872,1.17741
1.09,0.424556,1.80945,0.595765,0.017982,1.32229,1.18005
1.1,0.414879,1.82157,0.591567,0.0177332,1.31617,1.1826
1.11,0.405003,1.83379,0.587466,0.0175124,1.31007,1.18514
1.12,0.395035,1.8457,0.583465,0.017276,1.30409,1.18754
1.13,0.384699,1.85758,0.579565,0.0170827,1.2982,1.18989
1.14,0.374261,1.86917,0.575769,0.016886,1.29256,1.19223
1.15,0.363673,1.88053,0.572078,0.0166768,1.28691,1.19436
1.16,0.352874,1.89152,0.568495,0.0164976,1.28162,1.1965
1.17,0.341851,1.90224,0.56502,0.0162861,1.27647,1.19859
1.18,0.330666,1.91283,0.561656,0.0161182,1.27127,1.20045
1.19,0.31925,1.92291,0.558405,0.0159353,1.2665,1.20236
1.2,0.307713,1.93282,0.55527,0.0157605,1.26183,1.20421
1.21,0.296058,1.94229,0.552249,0.0156067,1.25729,1.20585
1.22,0.284203,1.95152,0.549347,0.0153892,1.2529,1.20751
1.23,0.272124,1.96027,0.546564,0.0152356,1.24886,1.20912
1.24,0.259887,1.96881,0.543903,0.0150527,1.24477,1.21055
1.25,0.247481,1.97687,0.541365,0.014883,1.24104,1.21197
1.26,0.234892,1.9842,0.538952,0.0147185,1.23767,1.21329
1.27,0.222117,1.99148,0.536666,0.0144967,1.23419,1.21449
1.28,0.209303,1.99805,0.534507,0.014303,1.23115,1.21566
1.29,0.196357,2.00422,0.532478,0.0140661,1.22823,1.21673
1.3,0.183176,2.00964,0.530578,0.0138567,1.22568,1.21767
1.31,0.169912,2.01447,0.528811,0.0135821,1.22342,1.2186
1.32,0.156586,2.01878,0.527177,0.0133369,1.22137,1.21938
1.33,0.14318,2.02249,0.525677,0.0130312,1.21956,1.22009
1.34,0.129619,2.02598,0.524311,0.0127653,1.21791,1.22081
1.35,0.116102,2.02842,0.523081,0.0124239,1.21668,1.22137
1.36,0.102428,2.03029,0.521986,0.012032,1.21567,1.22187
1.37,0.0886502,2.03202,0.52103,0.0117223,1.21473,1.22227
1.38,0.0749235,2.03299,0.52021,0.0113566,1.21411,1.22259
1.39,0.061185,2.03364,0.519528,0.0109745,1.21364,1.22289
1.4,0.0475106,2.03349,0.518983,0.0106192,1.21353,1.22306
1.41,0.0338068,2.03263,0.518574,0.0102506,1.21374,1.22313
1.42,0.0201326,2.03146,0.518303,0.00984609,1.21404,1.22313
1.43,0.00671563,2.02994,0.518167,0.00947706,1.21446,1.22302
1.44,-0.00678024,2.02813,0.518165,0.00909876,1.21489,1.22275
1.45,-0.0201677,2.02544,0.518298,0.00872088,1.21576,1.2224
1.46,-0.0334383,2.02223,0.518564,0.00835059,1.21686,1.22195
1.47,-0.0465084,2.01848,0.518961,0.00797067,1.21817,1.22138
1.48,-0.0593766,2.01405,0.519488,0.00762238,1.21983,1.22073
1.49,-0.072133,2.00967,0.520143,0.00728095,1.22139,1.21998
1.5,-0.0847187,2.00422,0.520926,0.00693972,1.22351,1.21913
1.51,-0.0970503,1.99889,0.521833,0.00659839,1.22542,1.21814
1.52,-0.109217,1.99306,0.522862,0.00625198,1.2275,1.21701
1.53,-0.121197,1.98668,0.524011,0.00591159,1.22981,1.21575
1.54,-0.132963,1.9803,0.525279,0.00558699,1.23207,1.2144
1.55,-0.14449,1.97359,0.526664,0.00527661,1.23453,1.21302
1.56,-0.155876,1.96612,0.528163,0.00494037,1.23737,1.21155
1.57,-0.16701,1.95895,0.529776,0.00467152,1.23998,1.20996
1.58,-0.177968,1.9506,0.531498,0.00437094,1.24319,1.20822
1.59,-0.188659,1.94174,0.533329,0.00407188,1.24664,1.20638
1.6,-0.19908,1.93306,0.535265,0.00324794,1.24954,1.20458
1.61,-0.209196,1.92118,0.537304,0.00159307,1.25351,1.20258
1.62,-0.219028,1.91153,0.539442,0.00106137,1.25708,1.20045
1.63,-0.228665,1.90195,0.541679,0.000624867,1.26068,1.19828
1.64,-0.238036,1.89388,0.544009,0.000967651,1.26407,1.19608
1.65,-0.247159,1.88505,0.546433,0.00147009,1.26817,1.1939
1.66,-0.256013,1.87618,0.548946,0.00214048,1.27248,1.19169
1.67,-0.264643,1.86533,0.551547,0.00182922,1.27685,1.18918
1.68,-0.272964,1.85474,0.554232,0.00181491,1.28139,1.18664
1.69,-0.281107,1.84445,0.557,0.00181209,1.28586,1.18418
1.7,-0.289063,1.83489,0.559848,0.00226795,1.29035,1.18174
1.71,-0.296859,1.82398,0.562776,0.00201327,1.29488,1.17909
1.72,-0.304372,1.81362,0.565779,0.00204541,1.29927,1.17634
1.73,-0.31175,1.80337,0.568858,0.00246492,1.3039,1.17349
1.74,-0.318828,1.79211,0.572008,0.0020505,1.30865,1.17078
1.75,-0.32565,1.78222,0.575228,0.00238817,1.31338,1.16824
1.76,-0.332295,1.77187,0.578516,0.00221707,1.31811,1.1658
1.77,-0.338605,1.76175,0.581868,0.00238064,1.32299,1.16329
1.78,-0.344762,1.75169,0.585283,0.0026867,1.32807,1.16083
1.79,-0.350673,1.74065,0.588758,0.00237948,1.33333,1.15836
1.8,-0.35626,1.72943,0.592291,0.00261064,1.33935,1.1559
1.81,-0.361585,1.71969,0.595878,0.00303019,1.3446,1.15354
1.82,-0.366708,1.70926,0.599517,0.00282593,1.34977,1.15114
1.83,-0.371562,1.69872,0.603207,0.00306581,1.35547,1.14868
1.84,-0.376221,1.68684,0.606944,0.00295128,1.36209,1.14632
1.85,-0.380612,1.67598,0.610726,0.00315315,1.36828,1.14396
1.86,-0.384738,1.66492,0.614551,0.00343952,1.37466,1.14149
1.87,-0.388622,1.65437,0.618416,0.00368051,1.38073,1.13907
1.88,-0.3923,1.64393,0.622319,0.00384716,1.38682,1.13676
1.89,-0.395777,1.63279,0.626258,0.0039382,1.39344,1.13438
1.9,-0.39901,1.62112,0.63023,0.00396529,1.4005,1.13198
1.91,-0.40197,1.60928,0.634233,0.00399233,1.40793,1.12967
1.92,-0.404677,1.59785,0.638265,0.00405672,1.41502,1.12725
1.93,-0.407165,1.58724,0.642323,0.00410759,1.42152,1.12489
1.94,-0.409387,1.57614,0.646404,0.00419131,1.42862,1.12255
1.95,-0.41142,1.56377,0.650506,0.00426767,1.43694,1.12018
1.96,-0.41325,1.55144,0.654628,0.00434863,1.4454,1.11786
1.97,-0.414954,1.54099,0.658768,0.00442249,1.45238,1.11564
1.98,-0.416359,1.53042,0.662923,0.00452652,1.4594,1.11329
1.99,-0.417558,1.51953,0.667091,0.00459126,1.46688,1.111
2,-0.41855,1.50968,0.67127,0.00469371,1.47363,1.10882
2.01,-0.419373,1.49933,0.675459,0.00480702,1.48088,1.10656
2.02,-0.419971,1.48791,0.679654,0.00490821,1.48925,1.10428
2.03,-0.42037,1.47672,0.683855,0.00500323,1.49761,1.10208
2.04,-0.42055,1.46585,0.688058,0.00509014,1.50572,1.09985
2.05,-0.420527,1.45442,0.692262,0.00520127,1.5146,1.09765
2.06,-0.420311,1.44324,0.696465,0.00530153,1.52336,1.09546
2.07,-0.419943,1.43231,0.700665,0.00541042,1.5319,1.0932
2.08,-0.41928,1.42123,0.70486,0.00550951,1.54079,1.09099
2.09,-0.418426,1.41034,0.709047,0.00557988,1.5496,1.0888
2.1,-0.417359,1.39966,0.713225,0.00571154,1.55839,1.08662
2.11,-0.41607,1.38936,0.717391,0.00582409,1.56693,1.08447
2.12,-0.41453,1.37957,0.721543,0.0058803,1.57502,1.08237
2.13,-0.412769,1.36986,0.725678,0.00600035,1.58311,1.08021
2.14,-0.410777,1.3603,0.729795,0.00610798,1.59114,1.07806
2.15,-0.408575,1.35134,0.733891,0.00622084,1.59869,1.07598
2.16,-0.406211,1.34241,0.737964,0.00634714,1.60639,1.07396
2.17,-0.40358,1.33334,0.742012,0.00644254,1.6143,1.07191
2.18,-0.400718,1.32537,0.746033,0.0065709,1.62107,1.06991
2.19,-0.397626,1.31718,0.750023,0.00669333,1.62821,1.06792
2.2,-0.394358,1.30879,0.753982,0.00678982,1.63561,1.06589
2.21,-0.390839,1.30124,0.757908,0.00692556,1.64218,1.06393
2.22,-0.387052,1.29359,0.761797,0.00705406,1.64907,1.06205
2.23,-0.383054,1.28579,0.765646,0.00715905,1.65622,1.06017
2.24,-0.378842,1.2788,0.769455,0.00728718,1.66255,1.05837
2.25,-0.374404,1.27178,0.773221,0.00739938,1.66905,1.05663
2.26,-0.369731,1.26465,0.776941,0.00746992,1.67578,1.05492
2.27,-0.364846,1.25796,0.780613,0.00759205,1.68204,1.05319
2.28,-0.359702,1.25141,0.784235,0.00770276,1.68825,1.05153
2.29,-0.354369,1.2446,0.787805,0.00777274,1.6949,1.04989
2.3,-0.348813,1.23812,0.79132,0.00785809,1.70124,1.0483
2.31,-0.343067,1.23207,0.794779,0.0079358,1.707,1.04668
2.32,-0.337075,1.22574,0.798179,0.00801502,1.71324,1.04508
2.33,-0.330887,1.21968,0.801518,0.00807362,1.71928,1.04356
2.34,-0.324478,1.2142,0.804795,0.00816767,1.72473,1.04212
2.35,-0.317856,1.20839,0.808006,0.00826813,1.73065,1.04065
2.36,-0.311052,1.20264,0.81115,0.00835199,1.73658,1.03921
2.37,-0.304212,1.1974,0.814226,0.00843669,1.74203,1.03791
2.38,-0.297055,1.19222,0.817232,0.00852851,1.74761,1.03668
2.39,-0.289714,1.18702,0.820165,0.00862615,1.75321,1.03543
2.4,-0.282185,1.18217,0.823024,0.00870744,1.75845,1.03424
2.41,-0.274485,1.17752,0.825807,0.0087984,1.76354,1.03312
2.42,-0.266735,1.17285,0.828513,0.00890797,1.7689,1.0321
2.43,-0.25877,1.16836,0.83114,0.00902414,1.7741,1.03112
2.44,-0.250726,1.16419,0.833687,0.00913952,1.77891,1.03018
2.45,-0.242471,1.15996,0.836153,0.00924919,1.78394,1.02928
2.46,-0.234095,1.15604,0.838535,0.00937947,1.78868,1.02847
2.47,-0.22561,1.15226,0.840834,0.00952484,1.79326,1.02766
2.48,-0.21695,1.14878,0.843046,0.00965655,1.79752,1.02693
2.49,-0.208192,1.14541,0.845172,0.00978392,1.80174,1.02626
2.5,-0.199323,1.14217,0.847209,0.00993558,1.80589,1.02564
2.51,-0.190324,1.1391,0.849157,0.0100893,1.80983,1.02504
2.52,-0.181277,1.13624,0.851015,0.0102214,1.81349,1.02447
2.53,-0.172068,1.13346,0.852782,0.0103499,1.81713,1.02395
2.54,-0.162841,1.13081,0.854456,0.0104765,1.82067,1.02349
2.55,-0.153496,1.1284,0.856038,0.0106103,1.82384,1.02303
2.56,-0.144083,1.12621,0.857526,0.010737,1.82673,1.0226
2.57,-0.134641,1.12409,0.85892,0.0108556,1.82962,1.02223
2.58,-0.125119,1.12217,0.860218,0.0109844,1.83226,1.02189
2.59,-0.115538,1.12049,0.861422,0.0110678,1.83457,1.02161
2.6,-0.105844,1.11889,0.862529,0.0111745,1.8368,1.02134
2.61,-0.0961572,1.11735,0.863539,0.0112878,1.83905,1.02113
2.62,-0.0864508,1.11605,0.864452,0.011389,1.84092,1.02092
2.63,-0.0766337,1.11501,0.865267,0.0114931,1.84245,1.02077
2.64,-0.0668555,1.1141,0.865985,0.0115842,1.84384,1.02066
2.65,-0.0571524,1.11327,0.866605,0.0116741,1.84513,1.02056
2.66,-0.0473243,1.11269,0.867128,0.0117539,1.84604,1.0205
2.67,-0.0375179,1.11223,0.867552,0.0118223,1.84685,1.02048
2.68,-0.0278751,1.11196,0.867879,0.0118993,1.8474,1.02051
2.69,-0.0180995,1.11183,0.868109,0.0119522,1.84779,1.02057
2.7,-0.00834344,1.11191,0.868242,0.0119943,1.84786,1.02066
2.71,0.00124314,1.11207,0.868277,0.012041,1.84784,1.02077
