time,velocity,ratio,centerX,Xmax,Xmin,Ymax
0,0,1,6,5,7,1
0.01,0.0196769,1,5.99991,4.99991,6.9999,1
0.02,0.039048,1.00001,5.99962,4.99962,6.99961,1
0.03,0.0581117,1.00001,5.99914,4.99914,6.99911,1
0.04,0.0768856,1.00002,5.99847,4.99847,6.99843,1
0.05,0.0953815,1.00003,5.99762,4.99762,6.99756,1
0.06,0.1137,1.00004,5.99658,4.99658,6.99651,0.999999
0.07,0.13163,1.00005,5.99536,4.99538,6.99528,0.999997
0.08,0.149285,1.00006,5.99396,4.994,6.99386,0.999996
0.09,0.166688,1.00007,5.99239,4.99244,6.99228,0.999993
0.1,0.183876,1.00011,5.99064,4.99072,6.99053,1.00002
0.11,0.200838,1.00016,5.98872,4.98883,6.9886,1.00004
0.12,0.217575,1.00021,5.98664,4.98679,6.98651,1.00007
0.13,0.234053,1.00026,5.98438,4.98459,6.98426,1.00009
0.14,0.250269,1.00031,5.98197,4.98224,6.98183,1.00011
0.15,0.266334,1.00039,5.97939,4.97973,6.97922,1.00013
0.16,0.282143,1.00048,5.97665,4.97707,6.97641,1.00015
0.17,0.297737,1.00063,5.97376,4.97427,6.97342,1.00021
0.18,0.313097,1.0008,5.97071,4.97133,6.97026,1.00027
0.19,0.328273,1.00098,5.96751,4.96825,6.96694,1.00033
0.2,0.34325,1.00119,5.96416,4.96504,6.96342,1.00039
0.21,0.357978,1.00142,5.96066,4.96169,6.95973,1.00044
0.22,0.372524,1.00172,5.95701,4.95822,6.95587,1.00054
0.23,0.386847,1.00203,5.95322,4.95462,6.95186,1.00065
0.24,0.400952,1.00236,5.94928,4.9509,6.94768,1.00075
0.25,0.414678,1.00271,5.94521,4.94705,6.94331,1.00084
0.26,0.428397,1.00313,5.941,4.94307,6.93879,1.00099
0.27,0.442061,1.00356,5.93665,4.93897,6.93413,1.00113
0.28,0.455364,1.00406,5.93217,4.93477,6.92923,1.00128
0.29,0.468426,1.00458,5.92755,4.93047,6.9242,1.00143
0.3,0.481337,1.00513,5.92281,4.92606,6.9191,1.00164
0.31,0.49405,1.00572,5.91794,4.92155,6.9138,1.00183
0.32,0.506523,1.00637,5.91294,4.91692,6.90829,1.00202
0.33,0.518837,1.00708,5.90782,4.9122,6.90265,1.00227
0.34,0.530926,1.00785,5.90257,4.90739,6.8968,1.00252
0.35,0.542857,1.00865,5.89721,4.90248,6.89077,1.00275
0.36,0.554581,1.00952,5.89172,4.89748,6.88465,1.00305
0.37,0.566135,1.01046,5.88612,4.8924,6.8783,1.00333
0.38,0.577458,1.0114,5.88041,4.88724,6.87186,1.00362
0.39,0.588527,1.01248,5.87458,4.88197,6.86517,1.00397
0.4,0.599436,1.01354,5.86865,4.8766,6.85837,1.0043
0.41,0.610151,1.01457,5.8626,4.87116,6.8516,1.00465
0.42,0.620847,1.01576,5.85645,4.86565,6.84454,1.00504
0.43,0.631181,1.01695,5.85019,4.86008,6.83738,1.0054
0.44,0.641276,1.01828,5.84384,4.85441,6.82994,1.00582
0.45,0.651224,1.01961,5.83738,4.84866,6.82243,1.00624
0.46,0.660971,1.02103,5.83082,4.84284,6.8147,1.00667
0.47,0.670526,1.02248,5.82416,4.83694,6.80692,1.00714
0.48,0.6799,1.02402,5.81742,4.83098,6.79886,1.00758
0.49,0.689089,1.02557,5.81057,4.82495,6.79085,1.00808
0.5,0.698114,1.02714,5.80364,4.81883,6.78267,1.00858
0.51,0.706759,1.02877,5.79662,4.81263,6.77437,1.00909
0.52,0.715336,1.03052,5.78951,4.80637,6.76584,1.00963
0.53,0.723794,1.03225,5.78232,4.80006,6.75726,1.01016
0.54,0.732062,1.03412,5.77504,4.79368,6.74846,1.01074
0.55,0.740269,1.03595,5.76768,4.78723,6.73962,1.01129
0.56,0.748127,1.03794,5.76024,4.78073,6.73056,1.0119
0.57,0.755894,1.0398,5.75273,4.77416,6.72162,1.01248
0.58,0.763497,1.04181,5.74513,4.76756,6.71246,1.01311
0.59,0.770922,1.04389,5.73746,4.76091,6.70314,1.01373
0.6,0.778143,1.04597,5.72972,4.75417,6.69374,1.01437
0.61,0.785149,1.04814,5.72191,4.74736,6.68416,1.01502
0.62,0.792042,1.05034,5.71402,4.74053,6.67454,1.01568
0.63,0.798822,1.0526,5.70607,4.73367,6.66481,1.01636
0.64,0.805461,1.05482,5.69805,4.72674,6.65508,1.01703
0.65,0.811954,1.05711,5.68997,4.71976,6.64527,1.01774
0.66,0.818343,1.05946,5.68182,4.71271,6.63525,1.01843
0.67,0.824312,1.06186,5.6736,4.70563,6.62519,1.01916
0.68,0.830434,1.06427,5.66533,4.6985,6.61506,1.01987
0.69,0.836345,1.06676,5.657,4.69129,6.60478,1.02061
0.7,0.842141,1.06912,5.64861,4.68402,6.59465,1.02134
0.71,0.84787,1.07158,5.64016,4.67672,6.58438,1.02211
0.72,0.853434,1.0741,5.63166,4.66939,6.57396,1.02285
0.73,0.858962,1.07663,5.6231,4.66198,6.56351,1.02362
0.74,0.864263,1.0792,5.61449,4.65455,6.55295,1.02438
0.75,0.86945,1.08182,5.60582,4.64705,6.54231,1.02516
0.76,0.874548,1.08436,5.5971,4.63955,6.53179,1.02594
0.77,0.879516,1.08694,5.58833,4.63198,6.52117,1.02672
0.78,0.884376,1.08955,5.57951,4.62433,6.51045,1.02751
0.79,0.889097,1.09216,5.57065,4.61668,6.49972,1.02829
0.8,0.893873,1.09484,5.56174,4.609,6.48892,1.0291
0.81,0.89846,1.0975,5.55278,4.60126,6.47803,1.02988
0.82,0.902977,1.10011,5.54377,4.59348,6.4673,1.0307
0.83,0.907375,1.10268,5.53472,4.58564,6.4565,1.03147
0.84,0.911605,1.10536,5.52563,4.57778,6.44559,1.03231
0.85,0.915794,1.10799,5.51649,4.56986,6.43466,1.03309
0.86,0.919935,1.11063,5.50732,4.56187,6.42371,1.03391
0.87,0.923994,1.11329,5.4981,4.55386,6.4127,1.03471
0.88,0.928042,1.11586,5.48884,4.54581,6.4018,1.03551
0.89,0.931973,1.11845,5.47954,4.53771,6.39086,1.03633
0.9,0.935804,1.12103,5.4702,4.52957,6.37985,1.03711
0.91,0.939634,1.12367,5.46083,4.52139,6.36881,1.03795
0.92,0.943275,1.12626,5.45142,4.5132,6.35776,1.03873
0.93,0.946783,1.12883,5.44197,4.50494,6.34675,1.03954
0.94,0.950303,1.13132,5.43248,4.49661,6.33577,1.04034
0.95,0.953795,1.13383,5.42296,4.48829,6.32476,1.04112
0.96,0.957123,1.13641,5.41341,4.47997,6.31371,1.04194
0.97,0.960477,1.13893,5.40382,4.47158,6.30261,1.04271
0.98,0.963816,1.1415,5.3942,4.46318,6.29149,1.04351
0.99,0.967195,1.14398,5.38455,4.45474,6.28046,1.04429
1,0.970419,1.14643,5.37486,4.44627,6.26941,1.04505
1.01,0.973543,1.14891,5.36515,4.43772,6.25833,1.04585
1.02,0.976709,1.15132,5.3554,4.42915,6.24724,1.0466
1.03,0.979787,1.15379,5.34562,4.42057,6.2361,1.04737
1.04,0.982775,1.15621,5.3358,4.41192,6.22497,1.04813
1.05,0.98572,1.1585,5.32596,4.40327,6.21396,1.04885
1.06,0.98864,1.16085,5.31609,4.39457,6.20294,1.04963
1.07,0.991495,1.1632,5.30619,4.38586,6.19185,1.05036
1.08,0.99443,1.16549,5.29627,4.37708,6.18075,1.05108
1.09,0.997191,1.16781,5.28631,4.36827,6.16964,1.05183
1.1,0.999995,1.17007,5.27632,4.35945,6.15854,1.05253
1.11,1.0027,1.17229,5.26631,4.3506,6.1475,1.05324
1.12,1.00522,1.17451,5.25627,4.34171,6.13644,1.05397
1.13,1.00789,1.17668,5.24621,4.33278,6.12536,1.05464
1.14,1.01055,1.1789,5.23612,4.32384,6.11423,1.05534
1.15,1.01318,1.18106,5.226,4.31482,6.1031,1.05603
1.16,1.01594,1.18307,5.21586,4.30576,6.09208,1.05667
1.17,1.01856,1.18513,5.20569,4.29668,6.08104,1.05735
1.18,1.02113,1.18717,5.19549,4.28755,6.06996,1.05801
1.19,1.02364,1.18915,5.18527,4.2784,6.05887,1.05862
1.2,1.02621,1.19118,5.17502,4.26921,6.04775,1.05928
1.21,1.02866,1.19319,5.16475,4.26001,6.0366,1.0599
1.22,1.03107,1.19503,5.15445,4.25073,6.02555,1.06048
1.23,1.03351,1.19693,5.14413,4.24143,6.01448,1.06111
1.24,1.03592,1.19883,5.13378,4.23213,6.00336,1.06171
1.25,1.03828,1.20068,5.12341,4.22279,5.99222,1.06226
1.26,1.04061,1.20256,5.11302,4.21343,5.98108,1.06285
1.27,1.04289,1.20436,5.1026,4.20403,5.96998,1.06342
1.28,1.04516,1.20607,5.09216,4.1946,5.95892,1.06394
1.29,1.04754,1.20778,5.0817,4.1851,5.94783,1.0645
1.3,1.04986,1.20949,5.07121,4.17557,5.93672,1.06505
1.31,1.0521,1.21117,5.0607,4.16603,5.92557,1.06555
1.32,1.0545,1.21282,5.05017,4.15643,5.9144,1.06606
1.33,1.0567,1.21444,5.03962,4.1468,5.90331,1.06659
1.34,1.05888,1.21602,5.02904,4.13717,5.8922,1.06708
1.35,1.06117,1.21754,5.01844,4.12747,5.88105,1.06753
1.36,1.06338,1.2191,5.00782,4.11772,5.8699,1.06804
1.37,1.0655,1.22064,4.99718,4.10799,5.85871,1.06851
1.38,1.0676,1.22212,4.98651,4.09821,5.84753,1.06894
1.39,1.06972,1.22357,4.97583,4.08841,5.83641,1.06941
1.4,1.07184,1.22499,4.96512,4.07856,5.82527,1.06985
1.41,1.074,1.22638,4.95439,4.06869,5.81408,1.07026
1.42,1.07615,1.22775,4.94364,4.05874,5.80286,1.07067
1.43,1.07821,1.22914,4.93287,4.04878,5.79163,1.0711
1.44,1.0803,1.23044,4.92208,4.03879,5.78043,1.07149
1.45,1.0824,1.23167,4.91127,4.02876,5.76924,1.07185
1.46,1.08445,1.23297,4.90044,4.01871,5.75802,1.07226
1.47,1.08656,1.23424,4.88958,4.00864,5.74678,1.07264
1.48,1.08855,1.23544,4.87871,3.99849,5.7355,1.07299
1.49,1.09053,1.23666,4.86781,3.98834,5.72421,1.07334
1.5,1.0925,1.23783,4.8569,3.97819,5.713,1.07371
1.51,1.09448,1.23895,4.84597,3.96799,5.70177,1.07404
1.52,1.0964,1.24005,4.83501,3.95776,5.69049,1.07434
1.53,1.09837,1.24123,4.82404,3.94751,5.67917,1.07469
1.54,1.10035,1.24233,4.81305,3.93719,5.66784,1.07502
1.55,1.10224,1.24335,4.80204,3.92684,5.65653,1.07531
1.56,1.10424,1.24436,4.791,3.91648,5.64523,1.0756
1.57,1.10631,1.24539,4.77995,3.90607,5.6339,1.07592
1.58,1.10823,1.24639,4.76888,3.89564,5.62254,1.0762
1.59,1.11028,1.24736,4.75779,3.88519,5.61116,1.07645
1.6,1.11216,1.24834,4.74668,3.87467,5.59974,1.07674
1.61,1.11404,1.24925,4.73555,3.86413,5.58839,1.07701
1.62,1.11598,1.25014,4.7244,3.85359,5.57702,1.07726
1.63,1.11789,1.25101,4.71323,3.84301,5.56559,1.07748
1.64,1.11977,1.25194,4.70205,3.8324,5.55414,1.07776
1.65,1.12166,1.25283,4.69084,3.82176,5.54266,1.078
1.66,1.12355,1.25365,4.67961,3.81105,5.53119,1.07822
1.67,1.12543,1.25441,4.66837,3.80032,5.51974,1.07843
1.68,1.12725,1.25523,4.65711,3.78957,5.50826,1.07867
1.69,1.12919,1.25601,4.64583,3.77879,5.49675,1.07889
1.7,1.13099,1.25678,4.63453,3.76798,5.48519,1.07908
1.71,1.13268,1.25757,4.62321,3.75716,5.47362,1.07928
1.72,1.13452,1.25826,4.61188,3.74626,5.46213,1.07951
1.73,1.13633,1.25896,4.60052,3.73537,5.4506,1.0797
1.74,1.13812,1.25965,4.58915,3.72447,5.43902,1.07987
1.75,1.13996,1.26037,4.57776,3.71354,5.42742,1.08006
1.76,1.1417,1.26111,4.56635,3.70258,5.41578,1.08026
1.77,1.14347,1.26177,4.55493,3.69159,5.40417,1.08044
1.78,1.14522,1.26236,4.54349,3.68054,5.39256,1.08059
1.79,1.14698,1.26301,4.53203,3.66948,5.38091,1.08078
1.8,1.14872,1.26365,4.52055,3.65838,5.36924,1.08097
1.81,1.15044,1.26428,4.50906,3.64728,5.35754,1.08113
1.82,1.15212,1.26488,4.49754,3.63616,5.34583,1.08126
1.83,1.15375,1.26544,4.48601,3.62498,5.33417,1.08144
1.84,1.15549,1.26602,4.47447,3.61379,5.32248,1.08161
1.85,1.1572,1.26659,4.46291,3.6026,5.31074,1.08176
1.86,1.15883,1.26714,4.45133,3.59137,5.29897,1.08188
1.87,1.16047,1.26775,4.43973,3.58013,5.28717,1.08205
1.88,1.16212,1.26831,4.42812,3.56886,5.27541,1.08222
1.89,1.16381,1.2688,4.41649,3.55753,5.26363,1.08236
1.9,1.16543,1.26929,4.40485,3.54619,5.25182,1.08247
1.91,1.16708,1.26985,4.39319,3.53483,5.23996,1.08263
1.92,1.16855,1.2704,4.38151,3.52345,5.22809,1.08278
1.93,1.17013,1.27089,4.36982,3.51207,5.21625,1.08292
1.94,1.17165,1.27131,4.35811,3.50063,5.20442,1.08303
1.95,1.17318,1.2718,4.34638,3.48918,5.19255,1.08318
1.96,1.17469,1.27233,4.33465,3.47775,5.18065,1.08333
1.97,1.17622,1.27283,4.32289,3.46627,5.16871,1.08345
1.98,1.17778,1.27331,4.31112,3.45479,5.15676,1.08356
1.99,1.17929,1.27378,4.29934,3.44328,5.14483,1.0837
2,1.18091,1.27425,4.28754,3.43172,5.13288,1.08385
2.01,1.18234,1.27472,4.27572,3.42016,5.1209,1.08398
2.02,1.18379,1.27517,4.26389,3.40857,5.10887,1.08409
2.03,1.18526,1.27564,4.25205,3.39698,5.09684,1.08421
2.04,1.1866,1.27611,4.24019,3.38538,5.08486,1.08436
2.05,1.18798,1.27653,4.22832,3.37372,5.07285,1.08449
2.06,1.1894,1.27696,4.21643,3.36207,5.06079,1.0846
2.07,1.19076,1.27743,4.20453,3.35043,5.0487,1.08471
2.08,1.19208,1.27795,4.19262,3.33876,5.03658,1.08486
2.09,1.19341,1.27842,4.1807,3.32709,5.02449,1.085
2.1,1.19474,1.27884,4.16876,3.31538,5.0124,1.08511
2.11,1.19605,1.27924,4.1568,3.30363,5.00026,1.0852
2.12,1.19756,1.27973,4.14484,3.29189,4.98811,1.08535
2.13,1.19859,1.28021,4.13286,3.28012,4.97591,1.08549
2.14,1.19983,1.28065,4.12086,3.26835,4.96375,1.08561
2.15,1.20107,1.28106,4.10886,3.25658,4.95159,1.08571
2.16,1.20222,1.2815,4.09685,3.24475,4.93939,1.08584
2.17,1.20316,1.28199,4.08482,3.23295,4.92716,1.08598
2.18,1.20439,1.28249,4.07278,3.22115,4.91491,1.08611
2.19,1.20557,1.28293,4.06073,3.20933,4.90267,1.08622
2.2,1.20674,1.28337,4.04867,3.1975,4.89044,1.08633
2.21,1.2079,1.28384,4.0366,3.18563,4.87818,1.08648
2.22,1.20906,1.28432,4.02452,3.17375,4.86588,1.08662
2.23,1.2102,1.28478,4.01242,3.16186,4.85357,1.08673
2.24,1.2113,1.2852,4.00031,3.14996,4.84127,1.08683
2.25,1.21233,1.28567,3.9882,3.13807,4.82899,1.08698
2.26,1.21339,1.28613,3.97607,3.12614,4.81668,1.08712
2.27,1.21444,1.28658,3.96393,3.1142,4.80433,1.08725
2.28,1.21551,1.28706,3.95178,3.10228,4.79196,1.08736
2.29,1.21647,1.28753,3.93962,3.09035,4.77959,1.08747
2.3,1.21749,1.28802,3.92745,3.07841,4.76724,1.08763
2.31,1.21849,1.2885,3.91527,3.06645,4.75487,1.08777
2.32,1.21952,1.28895,3.90309,3.05445,4.74247,1.08789
2.33,1.22053,1.28941,3.89089,3.04246,4.73003,1.08799
2.34,1.22145,1.28991,3.87868,3.03045,4.71762,1.08814
2.35,1.22232,1.29038,3.86646,3.01845,4.70523,1.08829
2.36,1.22324,1.29085,3.85423,3.00645,4.69282,1.08842
2.37,1.22414,1.29128,3.842,2.99439,4.68037,1.08854
2.38,1.22517,1.29175,3.82975,2.98237,4.66791,1.08865
2.39,1.226,1.2923,3.8175,2.97034,4.65542,1.08881
2.4,1.22692,1.29278,3.80523,2.95831,4.64298,1.08896
2.41,1.22779,1.29326,3.79296,2.94626,4.63051,1.08908
2.42,1.22866,1.2937,3.78068,2.93417,4.61801,1.08919
2.43,1.22948,1.29419,3.76839,2.92208,4.60549,1.08933
2.44,1.2304,1.29469,3.75609,2.90999,4.59298,1.08948
2.45,1.23116,1.29514,3.74378,2.89788,4.58051,1.08962
2.46,1.23194,1.2956,3.73147,2.88579,4.56801,1.08974
2.47,1.23269,1.29602,3.71915,2.87365,4.55548,1.08985
2.48,1.23347,1.29653,3.70682,2.86152,4.54294,1.09
2.49,1.23416,1.29705,3.69448,2.84941,4.53039,1.09015
2.5,1.23489,1.29752,3.68214,2.83729,4.51786,1.09029
2.51,1.23561,1.29798,3.66979,2.82517,4.50532,1.0904
2.52,1.23642,1.29842,3.65743,2.81301,4.49276,1.09051
2.53,1.23714,1.29894,3.64506,2.80084,4.48017,1.09067
2.54,1.2378,1.29943,3.63269,2.78868,4.46759,1.09082
2.55,1.23841,1.29987,3.62031,2.7765,4.45505,1.09095
2.56,1.23906,1.30031,3.60792,2.76433,4.44248,1.09106
2.57,1.23974,1.30076,3.59553,2.75214,4.42989,1.09118
2.58,1.24032,1.30126,3.58313,2.73993,4.41728,1.09133
2.59,1.2409,1.30177,3.57072,2.72776,4.40467,1.09148
2.6,1.24147,1.30222,3.55831,2.71557,4.39209,1.0916
2.61,1.2419,1.30267,3.54589,2.70338,4.3795,1.09171
2.62,1.2425,1.30314,3.53347,2.69118,4.36688,1.09184
2.63,1.24306,1.30364,3.52105,2.67894,4.35424,1.09199
2.64,1.24362,1.30412,3.50861,2.66672,4.34162,1.09213
2.65,1.24414,1.30454,3.49618,2.65449,4.32903,1.09226
2.66,1.24467,1.30497,3.48373,2.64226,4.31642,1.09236
2.67,1.2453,1.30543,3.47128,2.63003,4.30379,1.09249
2.68,1.24581,1.30591,3.45883,2.61776,4.29114,1.09264
2.69,1.24629,1.3064,3.44637,2.60553,4.27849,1.09278
2.7,1.24677,1.30684,3.4339,2.59329,4.26587,1.0929
2.71,1.24729,1.30727,3.42143,2.58105,4.25324,1.093
2.72,1.24783,1.30775,3.40896,2.5688,4.24058,1.09313
2.73,1.24817,1.30822,3.39648,2.55651,4.2279,1.09328
2.74,1.24861,1.30868,3.384,2.54423,4.21525,1.09341
2.75,1.24901,1.30908,3.37151,2.53194,4.20263,1.09353
2.76,1.24951,1.30948,3.35902,2.51967,4.18999,1.09363
2.77,1.24994,1.30995,3.34652,2.50739,4.17733,1.09376
2.78,1.25036,1.31039,3.33402,2.49507,4.16464,1.0939
2.79,1.25084,1.31085,3.32151,2.48279,4.15198,1.09403
2.8,1.25133,1.31126,3.309,2.4705,4.13933,1.09414
2.81,1.25173,1.31167,3.29649,2.45821,4.12667,1.09424
2.82,1.25141,1.3121,3.28397,2.44592,4.11401,1.09435
2.83,1.25181,1.31255,3.27146,2.43359,4.10133,1.09449
2.84,1.25221,1.31297,3.25894,2.42127,4.08866,1.09462
2.85,1.25248,1.31335,3.24642,2.40894,4.07602,1.09473
2.86,1.2528,1.31372,3.23389,2.39661,4.06336,1.09482
2.87,1.25309,1.31412,3.22136,2.3843,4.05069,1.09492
2.88,1.25335,1.31455,3.20883,2.37193,4.038,1.09506
2.89,1.2537,1.31496,3.1963,2.3596,4.02533,1.09518
2.9,1.25401,1.31535,3.18376,2.34728,4.01267,1.09529
2.91,1.25438,1.31572,3.17122,2.33495,4.00001,1.09538
2.92,1.25469,1.3161,3.15867,2.32262,3.98732,1.09546
2.93,1.25501,1.31651,3.14612,2.31025,3.97463,1.09559
2.94,1.25537,1.31688,3.13357,2.29787,3.96197,1.09571
2.95,1.2556,1.31723,3.12102,2.28551,3.94932,1.09581
2.96,1.25593,1.31757,3.10846,2.27314,3.93666,1.0959
2.97,1.2562,1.31791,3.0959,2.26079,3.92398,1.09597
2.98,1.25639,1.31829,3.08334,2.24839,3.91129,1.09609
2.99,1.25664,1.31866,3.07078,2.23601,3.89863,1.09621
3,1.25695,1.31902,3.05821,2.22366,3.88597,1.09631
3.01,1.25721,1.31936,3.04564,2.21128,3.8733,1.0964
3.02,1.25747,1.3197,3.03307,2.19892,3.86062,1.09647
3.03,1.25772,1.32004,3.02049,2.18652,3.84793,1.09657
3.04,1.25798,1.32039,3.00791,2.17412,3.83527,1.09668
3.05,1.25816,1.32071,2.99533,2.16172,3.82262,1.09678
3.06,1.25838,1.32102,2.98275,2.14932,3.80995,1.09687
3.07,1.2586,1.32135,2.97017,2.13693,3.79727,1.09694
3.08,1.25872,1.32165,2.95758,2.12451,3.78458,1.09701
3.09,1.2589,1.32199,2.94499,2.1121,3.77192,1.09713
3.1,1.25907,1.32232,2.9324,2.09971,3.75927,1.09723
3.11,1.2593,1.32264,2.91981,2.08732,3.74659,1.09732
3.12,1.25948,1.32297,2.90722,2.07493,3.7339,1.09739
3.13,1.25965,1.32325,2.89463,2.06251,3.72122,1.09744
3.14,1.25973,1.32356,2.88203,2.05008,3.70857,1.09755
3.15,1.25981,1.32386,2.86943,2.03766,3.69592,1.09765
3.16,1.25986,1.32416,2.85683,2.02524,3.68325,1.09774
3.17,1.25992,1.32447,2.84424,2.01284,3.67057,1.09781
3.18,1.26005,1.32474,2.83164,2.0004,3.65788,1.09786
3.19,1.26017,1.32503,2.81904,1.98798,3.64523,1.09796
3.2,1.26023,1.32536,2.80644,1.97558,3.63257,1.09806
3.21,1.26043,1.32568,2.79383,1.96317,3.6199,1.09814
3.22,1.26052,1.32599,2.78123,1.95077,3.60721,1.09822
3.23,1.26052,1.32627,2.76862,1.93834,3.59453,1.09827
3.24,1.26061,1.32652,2.75602,1.9259,3.58188,1.09834
3.25,1.26064,1.32682,2.74341,1.91348,3.56923,1.09844
3.26,1.26069,1.32712,2.73081,1.90104,3.55655,1.09853
3.27,1.26071,1.32743,2.7182,1.88863,3.54386,1.0986
3.28,1.26071,1.3277,2.7056,1.87619,3.53118,1.09866
3.29,1.26074,1.32792,2.69299,1.86374,3.51852,1.09871
3.3,1.26072,1.32825,2.68038,1.85133,3.50586,1.09882
3.31,1.26076,1.32857,2.66778,1.83891,3.49319,1.09891
3.32,1.26079,1.32889,2.65517,1.8265,3.48049,1.09898
3.33,1.26052,1.32916,2.64256,1.81407,3.46781,1.09904
3.34,1.26056,1.32937,2.62996,1.80161,3.45517,1.09909
3.35,1.26048,1.32966,2.61735,1.78919,3.44251,1.09918
3.36,1.2604,1.32996,2.60475,1.77675,3.42984,1.09927
3.37,1.26035,1.33027,2.59215,1.76434,3.41715,1.09934
3.38,1.26022,1.33054,2.57955,1.7519,3.40447,1.0994
3.39,1.26018,1.33075,2.56694,1.73945,3.39183,1.09945
3.4,1.25998,1.33104,2.55434,1.72705,3.37917,1.09952
3.41,1.25984,1.33137,2.54175,1.71464,3.3665,1.09962
3.42,1.25975,1.3317,2.52915,1.70224,3.35381,1.0997
3.43,1.25954,1.33198,2.51655,1.68982,3.34114,1.09976
3.44,1.25923,1.33221,2.50396,1.67739,3.3285,1.09981
3.45,1.25886,1.33247,2.49137,1.66498,3.31586,1.09987
3.46,1.25874,1.33279,2.47878,1.65256,3.30319,1.09997
3.47,1.25842,1.33312,2.4662,1.64017,3.29051,1.10005
3.48,1.25822,1.33342,2.45362,1.62777,3.27785,1.10012
3.49,1.258,1.33366,2.44103,1.61535,3.26521,1.10018
3.5,1.25776,1.33393,2.42846,1.60297,3.25256,1.10022
3.51,1.2573,1.33428,2.41588,1.5906,3.23991,1.10032
3.52,1.25704,1.33463,2.40331,1.57823,3.22724,1.10041
3.53,1.2567,1.33495,2.39074,1.56586,3.21459,1.10049
3.54,1.25643,1.3352,2.37818,1.55346,3.20198,1.10055
3.55,1.25601,1.33546,2.36562,1.54109,3.18935,1.1006
3.56,1.25571,1.33578,2.35306,1.52871,3.17671,1.10068
3.57,1.2553,1.33613,2.34051,1.51636,3.16407,1.10078
3.58,1.25504,1.33646,2.32795,1.50401,3.15144,1.10086
3.59,1.25468,1.33672,2.31541,1.49163,3.13883,1.10092
3.6,1.25427,1.33702,2.30286,1.47931,3.12622,1.10097
3.61,1.2539,1.33736,2.29032,1.46699,3.11359,1.10105
3.62,1.2535,1.33774,2.27779,1.45468,3.10096,1.10115
3.63,1.25293,1.33808,2.26525,1.44236,3.08835,1.10123
3.64,1.25249,1.33836,2.25273,1.43002,3.07577,1.1013
3.65,1.25188,1.33866,2.24021,1.41772,3.06318,1.10136
3.66,1.25133,1.33898,2.22769,1.4054,3.05058,1.10143
3.67,1.2508,1.33936,2.21518,1.39312,3.03797,1.10153
3.68,1.2503,1.33973,2.20268,1.38084,3.02538,1.10162
3.69,1.24968,1.34003,2.19018,1.36853,3.01281,1.1017
3.7,1.24913,1.34037,2.17768,1.35628,3.00024,1.10176
3.71,1.24859,1.34072,2.1652,1.34403,2.98766,1.10182
3.72,1.24789,1.34114,2.15271,1.3318,2.97507,1.10193
3.73,1.24726,1.34152,2.14024,1.31957,2.96252,1.10203
3.74,1.24661,1.34184,2.12777,1.30731,2.94999,1.10211
3.75,1.24587,1.34218,2.11531,1.29508,2.93745,1.10218
3.76,1.24514,1.34252,2.10285,1.28286,2.9249,1.10224
3.77,1.24432,1.34295,2.09041,1.27066,2.91235,1.10236
3.78,1.24368,1.34336,2.07797,1.25849,2.89983,1.10246
3.79,1.2428,1.34371,2.06554,1.24627,2.88732,1.10255
