time,velocity,ratio,centerX,Xmax,Xmin,Ymax
0,0,1,13.5,12.5,14.5,1
0.01,0.0197,0.999989,13.4999,12.4999,14.4999,1.00001
0.02,0.0390836,1,13.4996,12.4996,14.4996,1.00001
0.03,0.0581668,1.00001,13.4992,12.4991,14.4991,1.00002
0.04,0.0769678,1.00003,13.4985,12.4985,14.4985,1.00002
0.05,0.0954694,1.00005,13.4976,12.4976,14.4976,1.00002
0.06,0.113705,1.00006,13.4966,12.4966,14.4965,1.00003
0.07,0.131682,1.00008,13.4954,12.4954,14.4953,1.00003
0.08,0.149387,1.0001,13.494,12.494,14.4938,1.00002
0.09,0.166838,1.00012,13.4924,12.4924,14.4922,1.00001
0.1,0.18405,1.00016,13.4907,12.4907,14.4904,1.00003
0.11,0.201017,1.00022,13.4888,12.4888,14.4885,1.00005
0.12,0.217766,1.00027,13.4867,12.4868,14.4864,1.00008
0.13,0.234254,1.00031,13.4845,12.4846,14.4842,1.0001
0.14,0.250652,1.00034,13.482,12.4822,14.4818,1.00012
0.15,0.26669,1.00039,13.4795,12.4797,14.4792,1.00014
0.16,0.282543,1.00046,13.4767,12.4771,14.4765,1.00016
0.17,0.298151,1.00058,13.4738,12.4743,14.4735,1.00021
0.18,0.313537,1.00075,13.4708,12.4713,14.4704,1.00027
0.19,0.328721,1.00092,13.4676,12.4683,14.4671,1.00034
0.2,0.343705,1.0011,13.4642,12.4651,14.4637,1.0004
0.21,0.358448,1.0013,13.4607,12.4617,14.46,1.00045
0.22,0.372987,1.0016,13.4571,12.4582,14.4561,1.00055
0.23,0.387331,1.00195,13.4533,12.4547,14.4521,1.00066
0.24,0.401448,1.00228,13.4494,12.451,14.4479,1.00076
0.25,0.415227,1.00262,13.4453,12.4471,14.4436,1.00086
0.26,0.42892,1.00306,13.4411,12.4432,14.439,1.00099
0.27,0.442574,1.00354,13.4367,12.4391,14.4343,1.00114
0.28,0.455888,1.00403,13.4323,12.4349,14.4294,1.00129
0.29,0.468941,1.00458,13.4276,12.4306,14.4244,1.00144
0.3,0.481842,1.00523,13.4229,12.4262,14.4191,1.00165
0.31,0.494508,1.00586,13.418,12.4217,14.4137,1.00185
0.32,0.50698,1.00651,13.413,12.4171,14.4083,1.00205
0.33,0.519303,1.00728,13.4079,12.4124,14.4026,1.00231
0.34,0.531364,1.00808,13.4027,12.4077,14.3967,1.00257
0.35,0.543222,1.00892,13.3973,12.4028,14.3907,1.00282
0.36,0.554911,1.00988,13.3918,12.3979,14.3845,1.00313
0.37,0.566416,1.01089,13.3862,12.3928,14.3781,1.00344
0.38,0.577631,1.01195,13.3805,12.3878,14.3715,1.00375
0.39,0.588654,1.01314,13.3747,12.3826,14.3648,1.00413
0.4,0.599466,1.01434,13.3688,12.3772,14.3578,1.00449
0.41,0.610065,1.01558,13.3627,12.3719,14.3508,1.00487
0.42,0.620663,1.01691,13.3566,12.3664,14.3436,1.0053
0.43,0.630806,1.01827,13.3503,12.3609,14.3362,1.00571
0.44,0.640788,1.01974,13.344,12.3554,14.3287,1.00616
0.45,0.650554,1.02129,13.3375,12.3497,14.321,1.00664
0.46,0.660141,1.02291,13.331,12.344,14.3131,1.0071
0.47,0.6695,1.02465,13.3243,12.3383,14.3051,1.00764
0.48,0.678599,1.02645,13.3176,12.3324,14.2968,1.00815
0.49,0.687578,1.02836,13.3108,12.3266,14.2883,1.00871
0.5,0.696315,1.03034,13.3039,12.3206,14.2797,1.00929
0.51,0.704606,1.03234,13.2969,12.3145,14.271,1.00985
0.52,0.712904,1.03447,13.2898,12.3084,14.2621,1.01049
0.53,0.721002,1.03666,13.2826,12.3023,14.253,1.01111
0.54,0.728952,1.03899,13.2754,12.2961,14.2437,1.01178
0.55,0.736592,1.04141,13.2681,12.2898,14.2342,1.01244
0.56,0.744059,1.04388,13.2607,12.2835,14.2246,1.01313
0.57,0.75133,1.04644,13.2532,12.2772,14.2149,1.01385
0.58,0.758383,1.04904,13.2456,12.2708,14.2051,1.01455
0.59,0.765243,1.05181,13.238,12.2644,14.195,1.01533
0.6,0.771872,1.05461,13.2303,12.258,14.1849,1.01607
0.61,0.778383,1.05753,13.2226,12.2514,14.1745,1.01686
0.62,0.784587,1.06051,13.2148,12.2448,14.164,1.01765
0.63,0.790654,1.06362,13.2069,12.2382,14.1533,1.01848
0.64,0.796562,1.06682,13.199,12.2316,14.1425,1.01931
0.65,0.802223,1.07012,13.191,12.2249,14.1315,1.02017
0.66,0.807677,1.07354,13.183,12.2182,14.1204,1.02105
0.67,0.812702,1.07705,13.1749,12.2115,14.1091,1.02193
0.68,0.817805,1.08065,13.1667,12.2047,14.0977,1.02286
0.69,0.822814,1.08429,13.1585,12.1979,14.0862,1.02376
0.7,0.827538,1.08804,13.1503,12.191,14.0746,1.02472
0.71,0.832095,1.09182,13.142,12.1841,14.0629,1.02564
0.72,0.836516,1.09578,13.1336,12.1772,14.051,1.02664
0.73,0.84074,1.09978,13.1253,12.1702,14.039,1.02759
0.74,0.844862,1.10389,13.1168,12.1632,14.0269,1.0286
0.75,0.848796,1.10806,13.1084,12.1562,14.0146,1.02959
0.76,0.852548,1.11234,13.0999,12.1492,14.0023,1.03061
0.77,0.856191,1.11671,13.0913,12.1421,13.9898,1.03162
0.78,0.859576,1.12118,13.0827,12.1351,13.9772,1.03265
0.79,0.862856,1.12568,13.0741,12.1279,13.9645,1.03369
0.8,0.866038,1.13023,13.0655,12.1208,13.9518,1.03474
0.81,0.869069,1.1349,13.0568,12.1136,13.939,1.03581
0.82,0.871949,1.13965,13.0481,12.1064,13.9261,1.03688
0.83,0.874827,1.14449,13.0394,12.0992,13.9131,1.03797
0.84,0.877479,1.14939,13.0306,12.092,13.9,1.03905
0.85,0.879962,1.15439,13.0219,12.0848,13.8869,1.04017
0.86,0.882301,1.15942,13.013,12.0775,13.8737,1.04126
0.87,0.884534,1.16456,13.0042,12.0702,13.8604,1.04239
0.88,0.886688,1.16968,12.9954,12.0629,13.8471,1.04349
0.89,0.888731,1.17493,12.9865,12.0555,13.8337,1.04464
0.9,0.890649,1.18018,12.9776,12.0481,13.8203,1.04575
0.91,0.892522,1.18557,12.9687,12.0407,13.8069,1.04692
0.92,0.894354,1.19091,12.9598,12.0333,13.7934,1.04801
0.93,0.895995,1.1964,12.9508,12.0259,13.7798,1.04919
0.94,0.897555,1.20187,12.9418,12.0185,13.7663,1.05031
0.95,0.898955,1.2075,12.9329,12.0111,13.7527,1.05151
0.96,0.900318,1.21307,12.9239,12.0036,13.7391,1.05265
0.97,0.901689,1.21874,12.9149,11.9961,13.7255,1.05385
0.98,0.903073,1.2244,12.9058,11.9885,13.7118,1.055
0.99,0.904252,1.2302,12.8968,11.9811,13.6982,1.05622
1,0.905349,1.23596,12.8878,11.9735,13.6846,1.05738
1.01,0.906366,1.24184,12.8787,11.966,13.6709,1.0586
1.02,0.907325,1.24768,12.8696,11.9585,13.6573,1.05977
1.03,0.908259,1.25363,12.8606,11.9509,13.6436,1.06099
1.04,0.909125,1.25953,12.8515,11.9434,13.63,1.06216
1.05,0.90995,1.26548,12.8424,11.9357,13.6163,1.06337
1.06,0.910739,1.27142,12.8333,11.9281,13.6027,1.06454
1.07,0.911468,1.27745,12.8242,11.9205,13.5891,1.06576
1.08,0.912143,1.28343,12.8151,11.9129,13.5755,1.06693
1.09,0.912739,1.28946,12.8059,11.9052,13.562,1.06815
1.1,0.913348,1.29542,12.7968,11.8976,13.5485,1.06934
1.11,0.913925,1.3014,12.7877,11.8899,13.5352,1.07057
1.12,0.914486,1.30728,12.7785,11.8823,13.522,1.07176
1.13,0.914929,1.31311,12.7694,11.8746,13.5088,1.07298
1.14,0.915229,1.31886,12.7603,11.8668,13.4958,1.07418
1.15,0.915634,1.32465,12.7511,11.8591,13.4828,1.07541
1.16,0.915978,1.33033,12.7419,11.8514,13.47,1.0766
1.17,0.91633,1.33601,12.7328,11.8437,13.4572,1.07783
1.18,0.916623,1.34158,12.7236,11.836,13.4445,1.07901
1.19,0.916927,1.34717,12.7145,11.8282,13.4319,1.08023
1.2,0.917197,1.35267,12.7053,11.8205,13.4194,1.08141
1.21,0.917426,1.35815,12.6961,11.8127,13.407,1.08264
1.22,0.917695,1.36351,12.6869,11.8049,13.3946,1.08382
1.23,0.917933,1.36892,12.6778,11.7971,13.3824,1.08506
1.24,0.91805,1.37424,12.6686,11.7893,13.3701,1.08624
1.25,0.918246,1.37959,12.6594,11.7815,13.358,1.08747
1.26,0.918386,1.38483,12.6502,11.7736,13.3459,1.08865
1.27,0.918519,1.39013,12.6411,11.7658,13.3338,1.08988
1.28,0.91864,1.39531,12.6319,11.758,13.3219,1.09106
1.29,0.918708,1.40049,12.6227,11.7501,13.31,1.09228
1.3,0.918952,1.40555,12.6135,11.7422,13.2981,1.09345
1.31,0.919016,1.41069,12.6043,11.7343,13.2863,1.09466
1.32,0.919099,1.41573,12.5951,11.7264,13.2745,1.09581
1.33,0.919225,1.42085,12.5859,11.7186,13.2628,1.09703
1.34,0.919309,1.42583,12.5768,11.7107,13.2511,1.09818
1.35,0.919344,1.43092,12.5676,11.7028,13.2395,1.0994
1.36,0.919374,1.43584,12.5584,11.6949,13.2279,1.10055
1.37,0.919381,1.44082,12.5492,11.687,13.2163,1.10177
1.38,0.919399,1.44566,12.54,11.679,13.2049,1.10292
1.39,0.919362,1.4506,12.5308,11.6711,13.1934,1.10414
1.4,0.919401,1.45542,12.5216,11.6631,13.182,1.10528
1.41,0.919398,1.46029,12.5124,11.6552,13.1706,1.10649
1.42,0.919385,1.46507,12.5032,11.6472,13.1593,1.10762
1.43,0.919403,1.46992,12.494,11.6393,13.148,1.10882
1.44,0.919366,1.47463,12.4848,11.6313,13.1367,1.10994
1.45,0.919279,1.47935,12.4757,11.6233,13.1255,1.11112
1.46,0.919237,1.48401,12.4665,11.6153,13.1143,1.11225
1.47,0.919272,1.48874,12.4573,11.6073,13.1031,1.11342
1.48,0.919221,1.49342,12.4481,11.5993,13.092,1.11457
1.49,0.919247,1.49811,12.4389,11.5913,13.0808,1.11573
1.5,0.91926,1.50274,12.4297,11.5833,13.0698,1.11688
1.51,0.919229,1.50737,12.4205,11.5753,13.0587,1.11803
1.52,0.919112,1.51196,12.4113,11.5673,13.0477,1.11918
1.53,0.919137,1.51648,12.4021,11.5592,13.0367,1.12031
1.54,0.919068,1.52101,12.393,11.5511,13.0258,1.12146
1.55,0.919029,1.52551,12.3838,11.5431,13.0148,1.12257
1.56,0.918976,1.53004,12.3746,11.535,13.0039,1.12372
1.57,0.918931,1.53449,12.3654,11.5269,12.993,1.12482
1.58,0.918807,1.53898,12.3562,11.5189,12.9821,1.12596
1.59,0.918735,1.54339,12.347,11.5108,12.9713,1.12703
1.6,0.918661,1.54785,12.3378,11.5027,12.9604,1.12818
1.61,0.918466,1.55214,12.3287,11.4946,12.9496,1.12924
1.62,0.918373,1.55654,12.3195,11.4865,12.9389,1.13039
1.63,0.918309,1.56088,12.3103,11.4784,12.9281,1.13146
1.64,0.918227,1.5653,12.3011,11.4703,12.9174,1.13259
1.65,0.918121,1.56967,12.2919,11.4622,12.9067,1.13367
1.66,0.918097,1.57405,12.2828,11.4541,12.896,1.13478
1.67,0.918025,1.57835,12.2736,11.446,12.8853,1.13587
1.68,0.917981,1.58262,12.2644,11.4378,12.8747,1.13696
1.69,0.91796,1.58687,12.2552,11.4297,12.864,1.13805
1.7,0.917815,1.59114,12.246,11.4215,12.8534,1.13912
1.71,0.917766,1.59541,12.2369,11.4134,12.8428,1.14021
1.72,0.917708,1.59959,12.2277,11.4053,12.8322,1.14125
1.73,0.917638,1.60381,12.2185,11.3971,12.8216,1.14233
1.74,0.917628,1.60795,12.2093,11.389,12.8111,1.14335
1.75,0.91757,1.61218,12.2002,11.3808,12.8006,1.14446
1.76,0.917427,1.61625,12.191,11.3726,12.79,1.14548
1.77,0.917356,1.62044,12.1818,11.3644,12.7795,1.14657
1.78,0.917242,1.62457,12.1727,11.3562,12.769,1.1476
1.79,0.91718,1.62871,12.1635,11.348,12.7586,1.14867
1.8,0.917053,1.63281,12.1543,11.3398,12.7481,1.14971
1.81,0.916959,1.63689,12.1452,11.3317,12.7377,1.15075
1.82,0.916813,1.641,12.136,11.3235,12.7272,1.1518
1.83,0.916722,1.64499,12.1268,11.3152,12.7168,1.15281
1.84,0.916612,1.649,12.1177,11.307,12.7064,1.15386
1.85,0.916514,1.65293,12.1085,11.2987,12.6961,1.15484
1.86,0.916439,1.65696,12.0993,11.2905,12.6857,1.15589
1.87,0.916338,1.66084,12.0902,11.2823,12.6753,1.15684
1.88,0.916244,1.66483,12.081,11.274,12.665,1.15787
1.89,0.916159,1.66872,12.0719,11.2658,12.6547,1.15884
1.9,0.916203,1.67265,12.0627,11.2576,12.6444,1.15984
1.91,0.915982,1.67648,12.0535,11.2493,12.6341,1.16083
1.92,0.915841,1.68027,12.0444,11.2409,12.6238,1.1618
1.93,0.915813,1.68417,12.0352,11.2327,12.6136,1.16281
1.94,0.91569,1.68796,12.0261,11.2244,12.6033,1.16375
1.95,0.915594,1.69188,12.0169,11.2162,12.5931,1.16477
1.96,0.915517,1.69564,12.0078,11.2079,12.5828,1.16569
1.97,0.915454,1.69951,11.9986,11.1997,12.5726,1.16669
1.98,0.915368,1.70323,11.9895,11.1914,12.5624,1.16763
1.99,0.915274,1.70695,11.9803,11.183,12.5522,1.16859
2,0.915183,1.71065,11.9712,11.1747,12.5421,1.16952
2.01,0.915051,1.71434,11.962,11.1664,12.5319,1.17045
2.02,0.914922,1.71803,11.9529,11.1581,12.5218,1.17139
2.03,0.914824,1.72164,11.9437,11.1498,12.5116,1.17227
2.04,0.914716,1.72531,11.9346,11.1415,12.5015,1.17321
2.05,0.914653,1.72887,11.9254,11.1332,12.4914,1.17408
2.06,0.914526,1.73247,11.9163,11.1249,12.4813,1.17501
2.07,0.914532,1.73598,11.9071,11.1165,12.4712,1.1759
2.08,0.914399,1.73953,11.898,11.1082,12.4612,1.17679
2.09,0.914303,1.7431,11.8889,11.0999,12.4511,1.1777
2.1,0.914223,1.74655,11.8797,11.0915,12.4411,1.17854
2.11,0.91411,1.75013,11.8706,11.0832,12.4311,1.17947
2.12,0.914048,1.75357,11.8614,11.0749,12.421,1.18031
2.13,0.91395,1.75705,11.8523,11.0665,12.411,1.18121
2.14,0.913835,1.76042,11.8432,11.0581,12.401,1.18206
2.15,0.91382,1.76379,11.834,11.0497,12.3911,1.18291
2.16,0.913687,1.76719,11.8249,11.0414,12.3811,1.18377
2.17,0.913568,1.77047,11.8158,11.033,12.3711,1.18457
2.18,0.913442,1.77386,11.8066,11.0246,12.3612,1.18545
2.19,0.91338,1.77711,11.7975,11.0162,12.3512,1.18623
2.2,0.913251,1.78046,11.7884,11.0079,12.3413,1.18708
2.21,0.913165,1.78363,11.7792,10.9994,12.3314,1.18787
2.22,0.913038,1.7868,11.7701,10.991,12.3215,1.18866
2.23,0.912983,1.79003,11.761,10.9826,12.3116,1.18947
2.24,0.912868,1.79315,11.7519,10.9742,12.3017,1.1902
2.25,0.912758,1.79643,11.7427,10.9659,12.2919,1.19104
2.26,0.912669,1.79958,11.7336,10.9575,12.282,1.19181
2.27,0.912559,1.80278,11.7245,10.9491,12.2722,1.1926
2.28,0.912612,1.80589,11.7154,10.9407,12.2623,1.19339
2.29,0.912527,1.80889,11.7062,10.9322,12.2525,1.19412
2.3,0.912472,1.81202,11.6971,10.9238,12.2427,1.19494
2.31,0.912375,1.81501,11.688,10.9154,12.2329,1.19566
2.32,0.91232,1.81809,11.6789,10.907,12.2231,1.19645
2.33,0.912239,1.82108,11.6698,10.8986,12.2134,1.19719
2.34,0.91218,1.82407,11.6606,10.8901,12.2036,1.19793
2.35,0.912089,1.82707,11.6515,10.8817,12.1939,1.19869
2.36,0.912025,1.82986,11.6424,10.8732,12.1841,1.19936
2.37,0.911915,1.83281,11.6333,10.8648,12.1744,1.20014
2.38,0.911805,1.83565,11.6242,10.8563,12.1647,1.20082
2.39,0.911792,1.83855,11.6151,10.8479,12.1549,1.20155
2.4,0.911753,1.84139,11.6059,10.8394,12.1452,1.20224
2.41,0.911651,1.84418,11.5968,10.831,12.1356,1.20291
2.42,0.911529,1.84703,11.5877,10.8226,12.1259,1.20362
2.43,0.911433,1.84966,11.5786,10.8141,12.1162,1.20424
2.44,0.91134,1.85238,11.5695,10.8056,12.1065,1.20495
2.45,0.911299,1.85505,11.5604,10.7971,12.0969,1.20561
2.46,0.9113,1.85767,11.5513,10.7886,12.0873,1.20625
2.47,0.911373,1.86038,11.5422,10.7801,12.0776,1.20694
2.48,0.911321,1.86294,11.5331,10.7716,12.068,1.20755
2.49,0.911295,1.86564,11.5239,10.7632,12.0584,1.20824
2.5,0.9112,1.86823,11.5148,10.7547,12.0488,1.20889
2.51,0.911105,1.87069,11.5057,10.7461,12.0392,1.2095
2.52,0.911118,1.87329,11.4966,10.7376,12.0296,1.21018
2.53,0.911082,1.87576,11.4875,10.7291,12.0201,1.21076
2.54,0.911016,1.87834,11.4784,10.7206,12.0105,1.21144
2.55,0.911125,1.88084,11.4693,10.7121,12.001,1.21205
2.56,0.911113,1.8833,11.4602,10.7036,11.9914,1.21265
2.57,0.911001,1.8858,11.4511,10.6951,11.9819,1.21329
2.58,0.910972,1.88809,11.442,10.6866,11.9724,1.21383
2.59,0.910987,1.89054,11.4329,10.6781,11.9629,1.21448
2.6,0.910955,1.89285,11.4237,10.6695,11.9534,1.21505
2.61,0.910947,1.89518,11.4146,10.661,11.9439,1.21563
2.62,0.910953,1.89751,11.4055,10.6525,11.9344,1.21622
2.63,0.910849,1.89972,11.3964,10.6439,11.9249,1.21673
2.64,0.910808,1.90211,11.3873,10.6354,11.9154,1.21735
2.65,0.910779,1.90426,11.3782,10.6269,11.906,1.21786
2.66,0.910652,1.90644,11.3691,10.6183,11.8965,1.21843
2.67,0.910556,1.90864,11.36,10.6097,11.8871,1.21898
2.68,0.910555,1.91073,11.3509,10.6012,11.8776,1.21946
2.69,0.910542,1.91296,11.3418,10.5927,11.8682,1.22003
2.7,0.910497,1.91504,11.3327,10.5841,11.8588,1.22052
2.71,0.910493,1.91719,11.3236,10.5756,11.8494,1.22105
2.72,0.910504,1.91928,11.3145,10.567,11.84,1.22158
2.73,0.910436,1.92118,11.3054,10.5584,11.8306,1.22203
2.74,0.910457,1.92331,11.2963,10.5498,11.8212,1.22261
2.75,0.910436,1.92531,11.2872,10.5413,11.8118,1.2231
2.76,0.910432,1.9273,11.2781,10.5327,11.8024,1.22359
2.77,0.910402,1.92934,11.269,10.5241,11.7931,1.22413
2.78,0.910376,1.93122,11.2599,10.5155,11.7837,1.22456
2.79,0.910371,1.93328,11.2508,10.5069,11.7743,1.22512
2.8,0.910329,1.93512,11.2417,10.4983,11.765,1.22559
2.81,0.91034,1.93696,11.2326,10.4897,11.7557,1.22607
2.82,0.910283,1.93891,11.2235,10.4811,11.7463,1.22658
2.83,0.910254,1.94069,11.2144,10.4725,11.737,1.227
2.84,0.910356,1.94267,11.2053,10.4639,11.7277,1.22753
2.85,0.910319,1.94451,11.1962,10.4554,11.7184,1.22798
2.86,0.910319,1.94633,11.1871,10.4468,11.7091,1.22843
2.87,0.910324,1.94813,11.178,10.4382,11.6998,1.22891
2.88,0.910345,1.94975,11.1689,10.4295,11.6905,1.22929
2.89,0.910322,1.95162,11.1598,10.4209,11.6812,1.22981
2.9,0.91023,1.95329,11.1507,10.4123,11.6719,1.23022
2.91,0.910323,1.95501,11.1416,10.4037,11.6627,1.23066
2.92,0.910288,1.95674,11.1325,10.3951,11.6534,1.2311
2.93,0.91029,1.95834,11.1234,10.3865,11.6441,1.23146
2.94,0.910294,1.96007,11.1143,10.3778,11.6349,1.23194
2.95,0.910337,1.96156,11.1052,10.3692,11.6256,1.23232
2.96,0.910335,1.96319,11.0961,10.3605,11.6164,1.23274
2.97,0.910308,1.9648,11.087,10.3519,11.6071,1.23315
2.98,0.910291,1.9663,11.0779,10.3433,11.5979,1.23349
2.99,0.910294,1.96797,11.0688,10.3346,11.5887,1.23394
3,0.910315,1.96946,11.0597,10.326,11.5794,1.23428
3.01,0.910324,1.97099,11.0506,10.3174,11.5702,1.23468
3.02,0.91029,1.97245,11.0415,10.3087,11.561,1.23506
3.03,0.910282,1.97383,11.0324,10.3,11.5518,1.23538
3.04,0.910418,1.97537,11.0233,10.2913,11.5426,1.2358
3.05,0.91052,1.97675,11.0142,10.2827,11.5333,1.23613
3.06,0.910591,1.97819,11.0051,10.274,11.5241,1.23649
3.07,0.910635,1.97966,10.996,10.2654,11.5149,1.23688
3.08,0.910655,1.98096,10.9869,10.2567,11.5057,1.23717
3.09,0.91064,1.98238,10.9778,10.248,11.4966,1.23759
3.1,0.910695,1.98369,10.9686,10.2393,11.4874,1.23793
3.11,0.910745,1.98502,10.9595,10.2306,11.4782,1.23825
3.12,0.910788,1.98645,10.9504,10.2219,11.469,1.23865
3.13,0.910897,1.98774,10.9413,10.2132,11.4598,1.23894
3.14,0.910937,1.98916,10.9322,10.2046,11.4506,1.23932
3.15,0.910969,1.99051,10.9231,10.1959,11.4415,1.23966
3.16,0.911046,1.99171,10.914,10.1872,11.4323,1.23995
3.17,0.911215,1.99307,10.9049,10.1785,11.4231,1.24034
3.18,0.911246,1.99428,10.8958,10.1698,11.414,1.24063
3.19,0.911292,1.99558,10.8867,10.1611,11.4048,1.24098
3.2,0.911414,1.99686,10.8776,10.1524,11.3956,1.24131
3.21,0.911455,1.99802,10.8685,10.1437,11.3865,1.24157
3.22,0.911496,1.99939,10.8593,10.135,11.3773,1.24195
3.23,0.911594,2.00052,10.8502,10.1263,11.3682,1.24223
3.24,0.911671,2.00167,10.8411,10.1175,11.359,1.24255
3.25,0.911622,2.00288,10.832,10.1088,11.3499,1.24287
3.26,0.911703,2.00396,10.8229,10.1001,11.3407,1.24311
3.27,0.911762,2.00526,10.8138,10.0914,11.3316,1.24347
3.28,0.911784,2.00638,10.8047,10.0826,11.3224,1.24373
3.29,0.91186,2.00757,10.7955,10.0739,11.3133,1.24403
3.3,0.911934,2.00871,10.7864,10.0652,11.3041,1.24433
3.31,0.912014,2.00967,10.7773,10.0564,11.295,1.24455
3.32,0.9121,2.01087,10.7682,10.0477,11.2859,1.2449
3.33,0.912183,2.0119,10.7591,10.0389,11.2767,1.24514
3.34,0.912268,2.013,10.75,10.0302,11.2676,1.24542
3.35,0.912366,2.01411,10.7408,10.0214,11.2584,1.24571
3.36,0.912398,2.0151,10.7317,10.0127,11.2493,1.24591
3.37,0.912465,2.01626,10.7226,10.004,11.2402,1.24624
3.38,0.91255,2.01715,10.7135,9.99516,11.231,1.24647
3.39,0.912547,2.01819,10.7043,9.98638,11.2219,1.24674
3.4,0.912617,2.01927,10.6952,9.97763,11.2128,1.24702
3.41,0.912699,2.02021,10.6861,9.96889,11.2036,1.24721
3.42,0.912791,2.02139,10.677,9.96014,11.1945,1.24754
3.43,0.912857,2.0224,10.6679,9.95141,11.1853,1.24776
3.44,0.912907,2.02342,10.6587,9.94264,11.1762,1.24802
3.45,0.913019,2.02442,10.6496,9.93385,11.1671,1.24829
3.46,0.913138,2.02527,10.6405,9.92507,11.1579,1.24846
3.47,0.913287,2.0264,10.6313,9.9163,11.1488,1.24878
3.48,0.913457,2.02733,10.6222,9.90753,11.1397,1.24899
3.49,0.913509,2.02836,10.6131,9.89876,11.1305,1.24925
3.5,0.913527,2.02938,10.6039,9.89,11.1214,1.24951
3.51,0.913589,2.03026,10.5948,9.88122,11.1123,1.24968
3.52,0.913637,2.03131,10.5857,9.8724,11.1031,1.25
3.53,0.913711,2.03219,10.5765,9.8636,11.094,1.2502
3.54,0.913794,2.03312,10.5674,9.85482,11.0849,1.25041
3.55,0.913872,2.03411,10.5583,9.84604,11.0757,1.25066
3.56,0.913958,2.03496,10.5491,9.83726,11.0666,1.25082
3.57,0.91403,2.03602,10.54,9.82848,11.0575,1.25111
3.58,0.914141,2.03689,10.5309,9.81968,11.0483,1.25129
3.59,0.914225,2.03776,10.5217,9.81085,11.0392,1.25152
3.6,0.914419,2.0387,10.5126,9.80202,11.03,1.25177
3.61,0.914535,2.0395,10.5034,9.79321,11.0209,1.25193
3.62,0.914743,2.04051,10.4943,9.78438,11.0117,1.25222
3.63,0.914927,2.04138,10.4851,9.77556,11.0026,1.25242
3.64,0.915006,2.04226,10.476,9.76675,10.9934,1.25262
3.65,0.915069,2.04323,10.4669,9.75794,10.9843,1.25287
3.66,0.915188,2.04396,10.4577,9.74907,10.9751,1.25303
3.67,0.915259,2.04488,10.4486,9.7402,10.966,1.2533
3.68,0.915361,2.04577,10.4394,9.73137,10.9568,1.25351
3.69,0.915517,2.04662,10.4303,9.72255,10.9477,1.25369
3.7,0.91555,2.04762,10.4211,9.71373,10.9385,1.25395
3.71,0.915637,2.04845,10.4119,9.70491,10.9294,1.25411
3.72,0.915723,2.04943,10.4028,9.69608,10.9202,1.25437
3.73,0.915903,2.0503,10.3936,9.68722,10.911,1.25458
3.74,0.915923,2.05108,10.3845,9.67836,10.9019,1.25474
