time,velocity,ratio,centerX,Xmax,Xmin,Ymax
0,0,1,2,1,3,1
0.01,0.0189428,1.00006,1.99991,0.999948,2.99986,1.00001
0.02,0.0376496,1.00013,1.99962,0.99971,2.99954,1.00004
0.03,0.0559881,1.00016,1.99916,0.999266,2.99905,1.00005
0.04,0.0733721,1.00011,1.99851,0.998577,2.99843,1.00004
0.05,0.0899286,1.00005,1.99769,0.997719,2.99765,1.00002
0.06,0.106099,1.00002,1.99671,0.996722,2.99669,1.00001
0.07,0.122205,1.00007,1.99557,0.995627,2.99551,1.00001
0.08,0.138234,1.00011,1.99427,0.994358,2.99417,1.00002
0.09,0.154411,1.00008,1.99281,0.992902,2.99271,0.99999
0.1,0.172537,0.999977,1.99118,0.991202,2.99119,0.999971
0.11,0.193605,0.999972,1.98935,0.989359,2.98942,1
0.12,0.215213,1.00016,1.98731,0.987448,2.98722,1.00005
0.13,0.236418,1.00029,1.98505,0.985259,2.9849,1.00011
0.14,0.254134,1.00027,1.9826,0.982801,2.98241,1.00007
0.15,0.269978,1.00003,1.97998,0.979975,2.97996,1.00003
0.16,0.285078,0.999902,1.9772,0.9772,2.97722,0.999911
0.17,0.302584,0.999856,1.97427,0.974186,2.9744,0.999961
0.18,0.324846,1.00017,1.97113,0.971279,2.97109,1.00007
0.19,0.343861,1.00047,1.96778,0.968155,2.96754,1.00016
0.2,0.357964,1.00037,1.96427,0.964501,2.96399,1.00011
0.21,0.371381,0.999989,1.96063,0.960683,2.96059,0.999943
0.22,0.390371,0.999659,1.95682,0.95663,2.95716,0.999925
0.23,0.410422,0.99999,1.95282,0.952847,2.95284,0.999988
0.24,0.425742,1.00042,1.94864,0.948924,2.94833,1.00012
0.25,0.438828,1.0005,1.94431,0.944699,2.94397,1.00014
0.26,0.458373,1.00017,1.93984,0.939977,2.93984,1.0001
0.27,0.47623,1,1.93515,0.935186,2.93519,1
0.28,0.489116,0.999874,1.93033,0.930252,2.93038,0.999936
0.29,0.505266,1.00004,1.92536,0.925413,2.9254,1.00003
0.3,0.522965,1.0004,1.92021,0.920551,2.92001,1.00013
0.31,0.533834,1.00045,1.91493,0.915232,2.91458,1.00012
0.32,0.549265,1.00016,1.90952,0.909594,2.90945,1.00009
0.33,0.565154,0.999998,1.90394,0.904009,2.90408,1.00003
0.34,0.57649,0.999981,1.89823,0.898269,2.89818,0.999938
0.35,0.593196,1.0001,1.89239,0.892356,2.89236,1.00011
0.36,0.605991,1.00055,1.88639,0.886931,2.88601,1.00009
0.37,0.616744,1.00037,1.88028,0.880519,2.88007,1.00015
0.38,0.633413,1.00019,1.87403,0.874088,2.87387,1.00008
0.39,0.643184,0.999987,1.86764,0.86779,2.86772,0.999952
0.4,0.657753,0.999942,1.86115,0.861036,2.86123,1.00004
0.41,0.669945,1.00036,1.8545,0.85475,2.85411,1.00004
0.42,0.680779,1.00041,1.84775,0.848104,2.8476,1.00016
0.43,0.693758,1.00041,1.84087,0.841172,2.84063,1.00014
0.44,0.703138,1.00019,1.83389,0.833998,2.83368,1.00003
0.45,0.717839,1,1.82678,0.826828,2.82692,1.00005
0.46,0.727223,1.00018,1.81955,0.819842,2.81937,0.999944
0.47,0.740558,1.00013,1.81222,0.812116,2.81226,1.0002
0.48,0.748858,1.00061,1.80477,0.805386,2.80428,1.00006
0.49,0.76195,1.00018,1.79722,0.797282,2.79735,1.00021
0.5,0.77062,1.00034,1.78956,0.78993,2.78908,0.999918
0.51,0.783207,0.999864,1.7818,0.78158,2.78213,1.00014
0.52,0.792371,1.00037,1.77391,0.774389,2.77351,0.999927
0.53,0.804119,1.00021,1.76594,0.765947,2.76596,1.00022
0.54,0.810791,1.00057,1.75786,0.758362,2.75732,1.00005
0.55,0.822486,1.00016,1.74971,0.749768,2.74982,1.00019
0.56,0.828902,1.00028,1.74145,0.741732,2.74108,0.999951
0.57,0.84124,1.00004,1.7331,0.733051,2.73319,1.00011
0.58,0.847779,1.00037,1.72466,0.72502,2.72438,1.00005
0.59,0.857124,1.00037,1.71613,0.716318,2.71596,1.00019
0.6,0.863744,1.00047,1.70753,0.707908,2.70717,1.0001
0.61,0.871713,1.00034,1.69885,0.699105,2.69865,1.00011
0.62,0.880008,1.0002,1.6901,0.690346,2.69006,1.00006
0.63,0.887685,1.00024,1.68125,0.681433,2.68101,1.00002
0.64,0.897034,1.00028,1.67233,0.672553,2.67228,1.00015
0.65,0.902373,1.00054,1.66334,0.663863,2.66295,1.00008
0.66,0.911472,1.00031,1.65427,0.654336,2.65416,1.00022
0.67,0.917064,1.00052,1.64513,0.645669,2.64472,1.00005
0.68,0.924993,1.0001,1.63591,0.635886,2.63601,1.00016
0.69,0.932668,1.00043,1.62663,0.627095,2.62626,1.00001
0.7,0.937293,1.00022,1.61727,0.617272,2.61721,1.00019
0.71,0.944656,1.00062,1.60786,0.608487,2.60744,1.0001
0.72,0.94942,1.00036,1.59839,0.598592,2.59826,1.00019
0.73,0.956539,1.00044,1.58886,0.589154,2.58837,1.00005
0.74,0.963356,1.0002,1.57927,0.579525,2.57936,1.00012
0.75,0.968445,1.00039,1.5696,0.56985,2.56922,1.00007
0.76,0.97485,1.00037,1.55989,0.560078,2.55972,1.00019
0.77,0.979294,1.00059,1.55012,0.550715,2.54977,1.00012
0.78,0.983023,1.00044,1.5403,0.540488,2.5399,1.00015
0.79,0.98955,1.00038,1.53044,0.530811,2.53027,1.00011
0.8,0.992862,1.00027,1.52053,0.520767,2.52043,1.0001
0.81,0.997845,1.00039,1.51057,0.510741,2.51021,1.00013
0.82,1.00215,1.00055,1.50058,0.501208,2.50034,1.00012
0.83,1.00399,1.00046,1.49055,0.490794,2.49023,1.00018
0.84,1.0078,1.00046,1.48049,0.480823,2.48021,1.00016
0.85,1.01202,1.0004,1.47039,0.470874,2.47032,1.00012
0.86,1.01439,1.00045,1.46026,0.460518,2.45978,1.00008
0.87,1.01855,1.00036,1.45009,0.450396,2.45005,1.00019
0.88,1.02114,1.00055,1.4399,0.440474,2.43964,1.00014
0.89,1.02236,1.00054,1.42968,0.429846,2.42913,1.00018
0.9,1.02564,1.00056,1.41943,0.420096,2.41924,1.00013
0.91,1.02799,1.00035,1.40917,0.409455,2.40908,1.00016
0.92,1.02969,1.0005,1.39888,0.399075,2.39828,1.0001
0.93,1.03264,1.0005,1.38856,0.389189,2.38854,1.00017
0.94,1.03363,1.00059,1.37824,0.378689,2.37782,1.00016
0.95,1.03381,1.00055,1.3679,0.368105,2.36737,1.00018
0.96,1.03615,1.00056,1.35754,0.358298,2.35748,1.00015
0.97,1.03627,1.00048,1.34719,0.347484,2.3468,1.00014
0.98,1.03708,1.00051,1.33682,0.3371,2.33635,1.00014
0.99,1.03833,1.00056,1.32644,0.327194,2.32641,1.00017
1,1.03757,1.00061,1.31607,0.316396,2.31553,1.00018
1.01,1.0362,1.00066,1.30569,0.306174,2.30519,1.00017
1.02,1.03689,1.00058,1.29533,0.296079,2.2953,1.00019
1.03,1.03531,1.00058,1.28497,0.285263,2.28441,1.00015
1.04,1.03389,1.00057,1.27462,0.275095,2.2743,1.00017
1.05,1.03387,1.00066,1.26428,0.26509,2.26413,1.00017
1.06,1.03087,1.00066,1.25396,0.254271,2.25336,1.0002
1.07,1.02777,1.00074,1.24366,0.244379,2.24328,1.00019
1.08,1.02645,1.00066,1.23339,0.234145,2.23324,1.00021
1.09,1.02234,1.00067,1.22315,0.223517,2.22252,1.00017
1.1,1.01872,1.00066,1.21294,0.213656,2.21273,1.0002
1.11,1.01621,1.00074,1.20277,0.203554,2.20247,1.00019
1.12,1.01014,1.00076,1.19264,0.193087,2.192,1.00021
1.13,1.00514,1.00082,1.18255,0.183481,2.18232,1.00024
1.14,1.00022,1.0008,1.17253,0.173318,2.17214,1.00021
1.15,0.992678,1.0008,1.16257,0.163142,2.16195,1.0002
1.16,0.986551,1.0008,1.15267,0.153659,2.15257,1.00025
1.17,0.979817,1.00085,1.14284,0.14358,2.14232,1.00022
1.18,0.969845,1.00095,1.13309,0.133925,2.13247,1.00022
1.19,0.961838,1.00096,1.12343,0.124583,2.12324,1.00029
1.2,0.950971,1.00096,1.11387,0.114656,2.11322,1.00024
1.21,0.939458,1.00103,1.10441,0.10543,2.10393,1.00027
1.22,0.929136,1.00107,1.09507,0.0963594,2.09472,1.00026
1.23,0.913894,1.00108,1.08586,0.08677,2.08512,1.00025
1.24,0.900188,1.00121,1.07678,0.0782005,2.07647,1.00035
1.25,0.883441,1.00126,1.06787,0.0691524,2.06725,1.0003
1.26,0.864723,1.0014,1.05912,0.0605444,2.05843,1.00034
1.27,0.845504,1.00149,1.05057,0.0523952,2.05011,1.00035
1.28,0.823013,1.00158,1.04223,0.0438134,2.04136,1.00035
1.29,0.799286,1.00183,1.03412,0.0363884,2.03355,1.00041
1.3,0.770301,1.00201,1.02626,0.0285934,2.02544,1.00042
1.31,0.738504,1.00248,1.01872,0.0217932,2.01782,1.00048
1.32,0.699576,1.00294,1.01152,0.0153311,2.01059,1.00057
1.33,0.652234,1.00375,1.00476,0.00980883,2.00357,1.00062
1.34,0.594177,1.00476,0.99851,0.0051681,1.99728,1.00079
1.35,0.518376,1.00529,0.992932,9.63966e-08,1.99131,1.00092
1.36,0.429258,1.00813,0.988178,-0,1.98616,1.00116
1.37,0.304849,1.01053,0.984469,4.20616e-09,1.98207,1.00147
1.38,0.151264,1.0126,0.982175,5.58096e-09,1.97897,1.00196
1.39,-0.00731546,1.01357,0.981454,-0,1.97748,1.00215
1.4,-0.157368,1.0126,0.982287,4.0249e-09,1.97901,1.00198
1.41,-0.289076,1.01045,0.984537,5.23148e-09,1.98215,1.00143
1.42,-0.385138,1.00789,0.987942,7.939e-09,1.98628,1.00098
1.43,-0.433733,1.00516,0.992064,-0,1.99096,1.00062
1.44,-0.452562,1.00257,0.996518,0.000332429,1.99589,1.00034
1.45,-0.44011,0.999735,1.00101,5.24393e-08,2.00076,1.00011
1.46,-0.3987,0.997059,1.00522,5.7275e-08,2.00538,0.999742
1.47,-0.339704,0.997174,1.00893,0.00530078,2.00989,0.999464
1.48,-0.270487,0.996979,1.01198,0.00841966,2.01312,0.999321
1.49,-0.206637,0.997895,1.01435,0.0118754,2.0152,0.999555
1.5,-0.161241,0.999647,1.01617,0.0154614,2.01619,1.00001
1.51,-0.14346,1.0012,1.01768,0.0183935,2.01686,1.00043
1.52,-0.140429,1.0016,1.01909,0.0202519,2.01808,1.00051
1.53,-0.136272,1.00086,1.02048,0.0212467,2.02004,1.00026
1.54,-0.125182,0.999698,1.02179,0.0215619,2.02194,0.999886
1.55,-0.103789,0.998961,1.02295,0.0219404,2.02338,0.999681
1.56,-0.0710195,0.999058,1.02383,0.0229042,2.02424,0.999723
1.57,-0.0439969,0.999853,1.02439,0.0242848,2.02445,0.999937
1.58,-0.028961,1.00077,1.02475,0.025404,2.0243,1.00022
1.59,-0.0221637,1.00116,1.025,0.0259349,2.02427,1.00033
1.6,-0.0164983,1.00082,1.02519,0.0259639,2.02476,1.00022
1.61,-0.00581564,1.00014,1.02531,0.0256162,2.02533,0.999992
1.62,0.0130645,0.999665,1.02528,0.0250931,2.02549,0.999864
