time,velocity,ratio,centerX,Xmax,Xmin,Ymax
0,0,1,7.25,6.25,8.25,1
0.01,0.0197227,1,7.24991,6.24991,8.2499,1
0.02,0.039137,1.00001,7.24962,6.24962,8.24961,1
0.03,0.058248,1.00001,7.24914,6.24914,8.24911,1
0.04,0.0770631,1.00002,7.24847,6.24847,8.24843,1
0.05,0.0956072,1.00002,7.24761,6.24761,8.24756,1
0.06,0.113875,1.00003,7.24657,6.24657,8.24651,0.999999
0.07,0.131813,1.00004,7.24535,6.24536,8.24527,0.999997
0.08,0.149495,1.00006,7.24395,6.24398,8.24386,0.999995
0.09,0.166925,1.00007,7.24237,6.24242,8.24228,0.999993
0.1,0.184168,1.00011,7.24062,6.2407,8.24052,1.00001
0.11,0.201164,1.00015,7.2387,6.23881,8.23859,1.00004
0.12,0.217934,1.0002,7.23661,6.23676,8.23649,1.00007
0.13,0.234444,1.00025,7.23436,6.23456,8.23424,1.00009
0.14,0.250691,1.0003,7.23194,6.2322,8.23181,1.00011
0.15,0.26677,1.00038,7.22936,6.22968,8.22918,1.00013
0.16,0.282608,1.00047,7.22661,6.22702,8.22638,1.00015
0.17,0.298232,1.00062,7.22372,6.22421,8.22339,1.00021
0.18,0.313627,1.00079,7.22066,6.22126,8.22023,1.00027
0.19,0.328798,1.00097,7.21745,6.21818,8.21691,1.00033
0.2,0.343797,1.00117,7.2141,6.21496,8.21339,1.00039
0.21,0.358554,1.0014,7.21059,6.2116,8.20969,1.00044
0.22,0.3731,1.0017,7.20694,6.20813,8.20583,1.00055
0.23,0.387442,1.002,7.20314,6.20452,8.20183,1.00065
0.24,0.401532,1.00233,7.1992,6.2008,8.19765,1.00075
0.25,0.415456,1.00268,7.19512,6.19693,8.19328,1.00085
0.26,0.429163,1.0031,7.1909,6.19294,8.18875,1.001
0.27,0.442702,1.00353,7.18655,6.18884,8.1841,1.00115
0.28,0.455961,1.00402,7.18206,6.18463,8.17919,1.00129
0.29,0.469061,1.00454,7.17744,6.18032,8.17417,1.00145
0.3,0.481958,1.00509,7.17269,6.1759,8.16907,1.00166
0.31,0.494677,1.00568,7.16781,6.17138,8.16377,1.00185
0.32,0.506998,1.00631,7.1628,6.16674,8.15826,1.00204
0.33,0.519353,1.00703,7.15767,6.16201,8.15263,1.0023
0.34,0.53148,1.00779,7.15242,6.15719,8.14677,1.00254
0.35,0.543391,1.00859,7.14705,6.15226,8.14074,1.00278
0.36,0.555111,1.00946,7.14157,6.14725,8.13462,1.00308
0.37,0.566642,1.01039,7.13596,6.14217,8.12827,1.00337
0.38,0.577954,1.01134,7.13024,6.137,8.12182,1.00366
0.39,0.589027,1.01241,7.12441,6.13171,8.11513,1.00401
0.4,0.599973,1.01346,7.11847,6.12633,8.10834,1.00434
0.41,0.610756,1.01449,7.11242,6.12088,8.10157,1.00469
0.42,0.621349,1.01566,7.10626,6.11535,8.0945,1.00508
0.43,0.631694,1.01685,7.1,6.10977,8.08733,1.00544
0.44,0.64163,1.01818,7.09364,6.10408,8.07989,1.00586
0.45,0.651602,1.0195,7.08718,6.09832,8.07238,1.00628
0.46,0.661445,1.02092,7.08061,6.09248,8.06464,1.00671
0.47,0.671043,1.02236,7.07395,6.08656,8.05686,1.00718
0.48,0.680428,1.02389,7.0672,6.08058,8.04879,1.00762
0.49,0.689648,1.02543,7.06035,6.07454,8.04077,1.00812
0.5,0.698686,1.027,7.05341,6.06839,8.03258,1.00861
0.51,0.707503,1.02862,7.04639,6.06217,8.02427,1.00912
0.52,0.716171,1.03036,7.03927,6.05589,8.01572,1.00966
0.53,0.724656,1.03208,7.03207,6.04955,8.00713,1.01018
0.54,0.732954,1.03395,7.02478,6.04315,7.99831,1.01076
0.55,0.74116,1.03577,7.01742,6.03668,7.98944,1.0113
0.56,0.749089,1.03774,7.00997,6.03016,7.98038,1.01191
0.57,0.756924,1.03959,7.00244,6.02357,7.97142,1.01249
0.58,0.764557,1.04159,6.99484,6.01693,7.96225,1.01311
0.59,0.771998,1.04365,6.98715,6.01026,7.9529,1.01373
0.6,0.779244,1.04572,6.9794,6.00348,7.9435,1.01436
0.61,0.78644,1.04788,6.97158,5.99663,7.9339,1.01501
0.62,0.793363,1.05006,6.96368,5.98978,7.92426,1.01566
0.63,0.800166,1.0523,6.95571,5.98289,7.91453,1.01633
0.64,0.806831,1.05451,6.94768,5.97593,7.90477,1.017
0.65,0.813342,1.05679,6.93958,5.96893,7.89494,1.01769
0.66,0.819764,1.05913,6.93142,5.96186,7.88491,1.01838
0.67,0.825973,1.06152,6.92319,5.95476,7.87484,1.0191
0.68,0.832066,1.06391,6.9149,5.94762,7.86471,1.01981
0.69,0.838096,1.06639,6.90656,5.94039,7.85442,1.02054
0.7,0.843902,1.06875,6.89815,5.93312,7.84426,1.02127
0.71,0.849617,1.0712,6.88968,5.92581,7.83398,1.02202
0.72,0.855185,1.07372,6.88116,5.91846,7.82355,1.02277
0.73,0.860501,1.07625,6.87258,5.91106,7.81309,1.02353
0.74,0.865792,1.07881,6.86395,5.90362,7.80254,1.02429
0.75,0.870968,1.08143,6.85527,5.89613,7.79187,1.02506
0.76,0.876032,1.08399,6.84654,5.88863,7.78134,1.02584
0.77,0.881009,1.08656,6.83776,5.88106,7.77072,1.02662
0.78,0.885897,1.08918,6.82892,5.87342,7.76,1.02741
0.79,0.890616,1.09179,6.82004,5.86577,7.74925,1.02819
0.8,0.895353,1.0945,6.81111,5.8581,7.73842,1.029
0.81,0.899881,1.09715,6.80214,5.85035,7.72754,1.02977
0.82,0.904324,1.09977,6.79312,5.84258,7.7168,1.0306
0.83,0.908743,1.10235,6.78406,5.83476,7.706,1.03138
0.84,0.912935,1.10505,6.77495,5.82691,7.69508,1.03221
0.85,0.917142,1.1077,6.7658,5.819,7.68413,1.033
0.86,0.921247,1.11035,6.75661,5.81103,7.67316,1.03381
0.87,0.925285,1.11303,6.74738,5.80303,7.66215,1.03463
0.88,0.929256,1.11562,6.73811,5.795,7.65123,1.03542
0.89,0.933112,1.11824,6.7288,5.78691,7.64027,1.03625
0.9,0.936687,1.12086,6.71945,5.77881,7.62925,1.03704
0.91,0.940412,1.12353,6.71007,5.77066,7.61818,1.03788
0.92,0.94406,1.12618,6.70065,5.7625,7.6071,1.03867
0.93,0.94763,1.12876,6.69119,5.75426,7.59608,1.03948
0.94,0.951128,1.1313,6.6817,5.74596,7.58509,1.0403
0.95,0.954635,1.13383,6.67217,5.73767,7.57406,1.04107
0.96,0.958013,1.13645,6.66261,5.72937,7.56298,1.0419
0.97,0.961394,1.13902,6.65301,5.721,7.55185,1.04268
0.98,0.964709,1.14161,6.64339,5.71261,7.54071,1.04348
0.99,0.967929,1.14411,6.63372,5.70418,7.52967,1.04428
1,0.971182,1.14657,6.62403,5.69572,7.5186,1.04504
1.01,0.974273,1.14909,6.6143,5.68718,7.50749,1.04585
1.02,0.977351,1.15153,6.60455,5.67862,7.49638,1.04661
1.03,0.980581,1.154,6.59476,5.67003,7.48524,1.04737
1.04,0.983539,1.15645,6.58494,5.66139,7.47408,1.04815
1.05,0.986525,1.15877,6.57509,5.65273,7.46304,1.04887
1.06,0.989411,1.16114,6.56521,5.64403,7.45199,1.04965
1.07,0.992296,1.16352,6.55531,5.63532,7.44087,1.05039
1.08,0.995129,1.16583,6.54537,5.62653,7.42973,1.05111
1.09,0.997988,1.16818,6.5354,5.61772,7.41858,1.05187
1.1,1.00077,1.17046,6.52541,5.6089,7.40748,1.05258
1.11,1.00354,1.17268,6.51539,5.60004,7.39641,1.05328
1.12,1.00626,1.17492,6.50534,5.59114,7.38533,1.05401
1.13,1.0089,1.1771,6.49527,5.5822,7.37422,1.0547
1.14,1.01151,1.1793,6.48517,5.57324,7.3631,1.05539
1.15,1.01412,1.18148,6.47504,5.56421,7.35195,1.05609
1.16,1.01669,1.18352,6.46489,5.55514,7.3409,1.05674
1.17,1.01926,1.18558,6.45471,5.54606,7.32985,1.05741
1.18,1.02182,1.18764,6.44451,5.53692,7.31874,1.05808
1.19,1.02432,1.18964,6.43428,5.52777,7.30762,1.0587
1.2,1.02677,1.19167,6.42402,5.51857,7.29648,1.05934
1.21,1.02918,1.19369,6.41375,5.50937,7.28534,1.05998
1.22,1.03169,1.19556,6.40344,5.50009,7.27427,1.06057
1.23,1.03406,1.19746,6.39311,5.49079,7.26319,1.06118
1.24,1.03647,1.19938,6.38276,5.4815,7.25207,1.06179
1.25,1.03885,1.20124,6.37239,5.47215,7.24091,1.06235
1.26,1.04118,1.20311,6.36199,5.46278,7.22975,1.06293
1.27,1.04355,1.20491,6.35157,5.45338,7.21867,1.06351
1.28,1.04582,1.20662,6.34112,5.44393,7.2076,1.06404
1.29,1.04815,1.20832,6.33065,5.43442,7.19651,1.06458
1.3,1.05046,1.21004,6.32016,5.42489,7.18539,1.06514
1.31,1.05272,1.21173,6.30965,5.41533,7.17423,1.06565
1.32,1.05499,1.21337,6.29911,5.40573,7.16306,1.06614
1.33,1.05713,1.21499,6.28855,5.3961,7.15197,1.06668
1.34,1.05933,1.21658,6.27797,5.38646,7.14086,1.06718
1.35,1.06161,1.2181,6.26736,5.37675,7.12971,1.06764
1.36,1.0638,1.21968,6.25674,5.36701,7.11853,1.06814
1.37,1.06596,1.22123,6.24609,5.35727,7.10735,1.06862
1.38,1.06814,1.2227,6.23542,5.34748,7.09617,1.06906
1.39,1.07028,1.22413,6.22473,5.33767,7.08506,1.06952
1.4,1.07247,1.22556,6.21402,5.32782,7.07391,1.06997
1.41,1.07463,1.22694,6.20328,5.31793,7.06273,1.07038
1.42,1.07678,1.22829,6.19253,5.30797,7.0515,1.07078
1.43,1.0789,1.22969,6.18175,5.298,7.04026,1.07122
1.44,1.081,1.23098,6.17095,5.28799,7.02907,1.07162
1.45,1.08314,1.23221,6.16013,5.27796,7.01788,1.07198
1.46,1.08518,1.23349,6.14929,5.26789,7.00665,1.07238
1.47,1.08728,1.23477,6.13843,5.25781,6.99541,1.07277
1.48,1.08929,1.23597,6.12755,5.24765,6.98413,1.07312
1.49,1.09128,1.23715,6.11665,5.23749,6.97285,1.07345
1.5,1.09328,1.23833,6.10573,5.22732,6.96164,1.07383
1.51,1.09532,1.23945,6.09478,5.21711,6.9504,1.07416
1.52,1.09741,1.24055,6.08382,5.20686,6.93911,1.07447
1.53,1.09945,1.24169,6.07284,5.1966,6.92779,1.0748
1.54,1.10136,1.24279,6.06184,5.18626,6.91644,1.07513
1.55,1.10331,1.24381,6.05081,5.1759,6.90514,1.07542
1.56,1.10533,1.24478,6.03977,5.16551,6.89383,1.07569
1.57,1.10734,1.24581,6.02871,5.15509,6.88249,1.07601
1.58,1.10937,1.24681,6.01763,5.14464,6.87113,1.0763
1.59,1.11133,1.24778,6.00652,5.13417,6.85972,1.07655
1.6,1.1132,1.24871,5.9954,5.12363,6.84831,1.07682
1.61,1.11511,1.24962,5.98426,5.11309,6.83697,1.0771
1.62,1.11705,1.2505,5.9731,5.10253,6.82559,1.07735
1.63,1.11897,1.25136,5.96192,5.09193,6.81416,1.07757
1.64,1.12091,1.25227,5.95073,5.0813,6.8027,1.07782
1.65,1.12269,1.25316,5.93951,5.07065,6.79122,1.07807
1.66,1.12455,1.25397,5.92827,5.05993,6.77976,1.0783
1.67,1.12645,1.2547,5.91702,5.04919,6.7683,1.07848
1.68,1.12836,1.25553,5.90575,5.03843,6.75681,1.07874
1.69,1.13031,1.25631,5.89446,5.02763,6.74529,1.07896
1.7,1.13214,1.25709,5.88314,5.01682,6.73373,1.07915
1.71,1.13404,1.25783,5.87181,5.00598,6.72217,1.07933
1.72,1.13576,1.25853,5.86047,4.99507,6.71067,1.07956
1.73,1.1376,1.25924,5.8491,4.98418,6.69913,1.07977
1.74,1.13942,1.25993,5.83772,4.97326,6.68754,1.07994
1.75,1.14124,1.26062,5.82631,4.96231,6.67592,1.08011
1.76,1.14297,1.26136,5.81489,4.95134,6.66428,1.08032
1.77,1.14479,1.26201,5.80346,4.94032,6.65267,1.0805
1.78,1.14671,1.26261,5.792,4.92925,6.64105,1.08067
1.79,1.14851,1.26323,5.78052,4.91818,6.62939,1.08083
1.8,1.15038,1.26388,5.76903,4.90706,6.6177,1.08102
1.81,1.15214,1.26451,5.75752,4.89594,6.60598,1.08119
1.82,1.15389,1.2651,5.74599,4.8848,6.59427,1.08133
1.83,1.15556,1.26562,5.73444,4.87358,6.58259,1.08148
1.84,1.15727,1.26621,5.72288,4.86238,6.57088,1.08166
1.85,1.15908,1.26679,5.7113,4.85116,6.55912,1.08182
1.86,1.16076,1.26735,5.6997,4.83991,6.54733,1.08194
1.87,1.16246,1.26792,5.68809,4.82864,6.53551,1.08208
1.88,1.16408,1.26848,5.67646,4.81735,6.52374,1.08226
1.89,1.16581,1.26898,5.66481,4.806,6.51194,1.08241
1.9,1.16746,1.26948,5.65314,4.79464,6.50011,1.08253
1.91,1.16915,1.26998,5.64146,4.78325,6.48825,1.08265
1.92,1.17079,1.27054,5.62976,4.77185,6.47635,1.08282
1.93,1.1724,1.27104,5.61805,4.76045,6.4645,1.08296
1.94,1.17394,1.27147,5.60632,4.74897,6.45264,1.08308
1.95,1.17554,1.27193,5.59457,4.7375,6.44073,1.08319
1.96,1.17706,1.27247,5.58281,4.72604,6.42879,1.08335
1.97,1.17861,1.27298,5.57103,4.71454,6.41682,1.08349
1.98,1.18014,1.27345,5.55924,4.70302,6.40486,1.0836
1.99,1.18165,1.27387,5.54743,4.69148,6.39291,1.08371
2,1.18318,1.27435,5.53561,4.67988,6.38093,1.08387
2.01,1.18467,1.27483,5.52377,4.66829,6.36892,1.084
2.02,1.18624,1.27529,5.51191,4.65667,6.35686,1.08412
2.03,1.1877,1.27572,5.50005,4.64505,6.34482,1.08421
2.04,1.18906,1.27618,5.48816,4.63342,6.3328,1.08436
2.05,1.19049,1.27661,5.47627,4.62172,6.32076,1.0845
2.06,1.19188,1.27706,5.46436,4.61005,6.30867,1.08462
2.07,1.1933,1.27751,5.45243,4.59838,6.29655,1.08471
2.08,1.19468,1.278,5.44049,4.58668,6.28441,1.08484
2.09,1.19601,1.27847,5.42854,4.57498,6.2723,1.08499
2.1,1.19744,1.2789,5.41657,4.56323,6.26018,1.08511
2.11,1.19884,1.27931,5.40459,4.55145,6.24802,1.08522
2.12,1.20024,1.27976,5.3926,4.53968,6.23582,1.08532
2.13,1.2015,1.28024,5.38059,4.52788,6.2236,1.08547
2.14,1.20278,1.28068,5.36857,4.51608,6.21143,1.08561
2.15,1.20402,1.28109,5.35654,4.50426,6.19925,1.08572
2.16,1.20523,1.28147,5.34449,4.49239,6.18702,1.08581
2.17,1.20652,1.28198,5.33243,4.48057,6.17475,1.08596
2.18,1.20784,1.28248,5.32036,4.46872,6.16246,1.0861
2.19,1.20908,1.28292,5.30828,4.45686,6.15021,1.08622
2.2,1.21045,1.28334,5.29618,4.44498,6.13794,1.08632
2.21,1.2116,1.28377,5.28407,4.43305,6.12564,1.08644
2.22,1.2128,1.28425,5.27195,4.42113,6.11331,1.08659
2.23,1.21403,1.28472,5.25982,4.40919,6.10095,1.08672
2.24,1.21514,1.28513,5.24767,4.39724,6.08863,1.08683
2.25,1.21622,1.28553,5.23552,4.3853,6.07632,1.08693
2.26,1.21734,1.28599,5.22335,4.37331,6.06396,1.08708
2.27,1.21844,1.28646,5.21117,4.36132,6.05158,1.08722
2.28,1.21954,1.28693,5.19898,4.34936,6.03917,1.08734
2.29,1.22059,1.28736,5.18678,4.33736,6.02677,1.08744
2.3,1.22169,1.28782,5.17457,4.32537,6.01438,1.08757
2.31,1.22274,1.28829,5.16235,4.31334,6.00197,1.08772
2.32,1.22396,1.28874,5.15012,4.30128,5.98952,1.08785
2.33,1.225,1.2892,5.13788,4.28923,5.97704,1.08796
2.34,1.22597,1.28961,5.12562,4.27717,5.9646,1.08806
2.35,1.22697,1.29008,5.11336,4.26511,5.95217,1.08822
2.36,1.22794,1.29054,5.10108,4.25303,5.9397,1.08836
2.37,1.22887,1.29098,5.0888,4.24092,5.9272,1.08848
2.38,1.22982,1.29145,5.07651,4.22884,5.91468,1.08859
2.39,1.23076,1.29191,5.06421,4.21675,5.90217,1.08871
2.4,1.23166,1.2924,5.0519,4.20465,5.88968,1.08886
2.41,1.23256,1.29288,5.03958,4.19254,5.87716,1.089
2.42,1.23347,1.29333,5.02725,4.18038,5.86461,1.08913
2.43,1.23435,1.29378,5.01491,4.16824,5.85204,1.08923
2.44,1.2352,1.29423,5.00256,4.15609,5.8395,1.08936
2.45,1.23604,1.2947,4.99021,4.14393,5.82698,1.08952
2.46,1.23681,1.29517,4.97784,4.13178,5.81442,1.08965
2.47,1.23758,1.2956,4.96547,4.11958,5.80184,1.08977
2.48,1.23836,1.29606,4.95309,4.10741,5.78923,1.08987
2.49,1.23911,1.29657,4.94071,4.09525,5.77664,1.09002
2.5,1.23991,1.29705,4.92831,4.08306,5.76407,1.09017
2.51,1.24072,1.29753,4.91591,4.07088,5.75147,1.09031
2.52,1.24155,1.29797,4.9035,4.05866,5.73885,1.09042
2.53,1.24232,1.29841,4.89108,4.04643,5.72622,1.09052
2.54,1.243,1.29889,4.87865,4.0342,5.7136,1.09068
2.55,1.24374,1.29934,4.86622,4.02196,5.70101,1.09083
2.56,1.24447,1.29981,4.85378,4.00974,5.68838,1.09096
2.57,1.24529,1.30023,4.84133,3.99747,5.67574,1.09107
2.58,1.246,1.30068,4.82888,3.98522,5.66307,1.09117
2.59,1.24672,1.30119,4.81642,3.97298,5.65042,1.09133
2.6,1.24737,1.30166,4.80395,3.96072,5.63778,1.09148
2.61,1.24813,1.30212,4.79147,3.94847,5.62512,1.0916
2.62,1.24879,1.30255,4.77898,3.93617,5.61244,1.09172
2.63,1.24953,1.30298,4.76649,3.92386,5.59975,1.09182
2.64,1.25027,1.30344,4.754,3.91156,5.58708,1.09197
2.65,1.25088,1.30387,4.74149,3.89925,5.57443,1.09211
2.66,1.25152,1.30432,4.72898,3.88695,5.56175,1.09224
2.67,1.25212,1.30473,4.71646,3.87461,5.54905,1.09235
2.68,1.2527,1.30513,4.70394,3.86227,5.53634,1.09244
2.69,1.25328,1.30562,4.69141,3.84996,5.52365,1.0926
2.7,1.25389,1.30606,4.67888,3.83763,5.51096,1.09273
2.71,1.25454,1.30651,4.66634,3.82531,5.49825,1.09286
2.72,1.25514,1.30693,4.65379,3.81295,5.48551,1.09296
2.73,1.25577,1.30732,4.64123,3.80057,5.47278,1.09305
2.74,1.25633,1.30775,4.62867,3.7882,5.46008,1.0932
2.75,1.25682,1.30816,4.61611,3.77582,5.44738,1.09333
2.76,1.25738,1.30859,4.60354,3.76346,5.43465,1.09345
2.77,1.25795,1.30897,4.59096,3.75106,5.42192,1.09356
2.78,1.25841,1.30935,4.57838,3.73865,5.40916,1.09364
2.79,1.25891,1.3098,4.5658,3.72627,5.39644,1.09379
2.8,1.25941,1.31021,4.55321,3.71388,5.38371,1.09391
2.81,1.25992,1.31062,4.54061,3.70149,5.37097,1.09403
2.82,1.26049,1.31102,4.52801,3.68907,5.3582,1.09413
2.83,1.26111,1.31136,4.5154,3.67663,5.34544,1.09421
2.84,1.26164,1.31174,4.50279,3.66421,5.33272,1.09432
2.85,1.26209,1.31212,4.49017,3.65176,5.31998,1.09445
2.86,1.26262,1.31251,4.47755,3.63934,5.30723,1.09457
2.87,1.26312,1.31289,4.46492,3.62688,5.29445,1.09467
2.88,1.26351,1.31323,4.45229,3.61441,5.28167,1.09475
2.89,1.26402,1.31358,4.43965,3.60197,5.26893,1.09484
2.9,1.26445,1.31397,4.42701,3.58952,5.25617,1.09497
2.91,1.26496,1.31437,4.41436,3.57707,5.2434,1.09508
2.92,1.26542,1.31473,4.40171,3.5646,5.23061,1.09518
2.93,1.26584,1.31506,4.38906,3.5521,5.21783,1.09527
2.94,1.26624,1.31535,4.3764,3.53961,5.20508,1.09533
2.95,1.26666,1.3157,4.36373,3.52711,5.19232,1.09545
2.96,1.26715,1.31606,4.35107,3.51463,5.17954,1.09556
2.97,1.26756,1.31641,4.33839,3.50212,5.16675,1.09566
2.98,1.26804,1.31672,4.32572,3.48959,5.15395,1.09575
2.99,1.26849,1.31702,4.31303,3.4771,5.14119,1.09582
3,1.26896,1.31735,4.30035,3.4646,5.12841,1.0959
3.01,1.26938,1.31772,4.28766,3.4521,5.11561,1.09602
3.02,1.2693,1.31807,4.27497,3.43958,5.1028,1.09612
3.03,1.26975,1.31837,4.26227,3.42704,5.09001,1.09621
3.04,1.27016,1.31864,4.24957,3.4145,5.07724,1.09628
3.05,1.27054,1.3189,4.23687,3.40196,5.06446,1.09633
3.06,1.27098,1.31925,4.22416,3.38943,5.05166,1.09645
3.07,1.27132,1.31958,4.21145,3.37687,5.03885,1.09655
3.08,1.2717,1.31987,4.19874,3.3643,5.02604,1.09664
3.09,1.27211,1.32015,4.18602,3.35176,5.01326,1.09671
3.1,1.27257,1.32041,4.1733,3.33921,5.00046,1.09677
3.11,1.27298,1.32072,4.16057,3.32666,4.98764,1.09685
3.12,1.27352,1.32104,4.14784,3.31408,4.97482,1.09695
3.13,1.27386,1.32131,4.1351,3.30148,4.96202,1.09704
3.14,1.2743,1.32155,4.12236,3.28888,4.94923,1.09711
3.15,1.27473,1.32178,4.10962,3.27627,4.93642,1.09717
3.16,1.27518,1.32202,4.09687,3.26368,4.9236,1.09722
3.17,1.27551,1.3223,4.08412,3.25106,4.91077,1.09731
3.18,1.27587,1.32255,4.07136,3.23843,4.89795,1.0974
3.19,1.27627,1.32281,4.0586,3.22583,4.88515,1.09748
3.2,1.27666,1.32305,4.04584,3.21322,4.87232,1.09754
3.21,1.27703,1.32329,4.03307,3.20061,4.85948,1.09758
3.22,1.27744,1.32352,4.0203,3.18797,4.84664,1.09764
3.23,1.27782,1.32376,4.00752,3.17531,4.83382,1.09773
3.24,1.27811,1.32399,3.99474,3.16266,4.821,1.09781
3.25,1.2785,1.32421,3.98196,3.15001,4.80817,1.09787
3.26,1.27883,1.32444,3.96918,3.13737,4.79531,1.09792
3.27,1.27913,1.32463,3.95639,3.12469,4.78245,1.09796
3.28,1.27948,1.32486,3.94359,3.11202,4.76961,1.09804
3.29,1.27982,1.32511,3.9308,3.09937,4.75677,1.09812
3.3,1.28024,1.32535,3.918,3.08671,4.74391,1.09818
3.31,1.28059,1.32559,3.9052,3.07405,4.73104,1.09824
3.32,1.28091,1.32577,3.89239,3.06136,4.71817,1.09828
3.33,1.2812,1.32593,3.87958,3.04866,4.70533,1.09831
3.34,1.2815,1.32615,3.86677,3.03596,4.69248,1.0984
3.35,1.28187,1.32637,3.85395,3.02326,4.67961,1.09846
3.36,1.28219,1.3266,3.84113,3.01058,4.66672,1.09852
3.37,1.28252,1.32677,3.82831,2.99784,4.65384,1.09857
3.38,1.28286,1.32693,3.81548,2.98514,4.64098,1.0986
3.39,1.28318,1.32713,3.80265,2.97244,4.62811,1.09865
3.4,1.28351,1.32737,3.78982,2.95974,4.61523,1.09872
3.41,1.2839,1.32761,3.77698,2.94703,4.60233,1.09879
3.42,1.28419,1.32779,3.76414,2.93429,4.58943,1.09884
3.43,1.28448,1.32794,3.7513,2.92155,4.57657,1.09888
3.44,1.2847,1.32808,3.73846,2.90881,4.56368,1.0989
3.45,1.285,1.32828,3.72561,2.89607,4.55078,1.09896
3.46,1.28521,1.32852,3.71276,2.88335,4.53787,1.09903
3.47,1.28548,1.32869,3.69991,2.87057,4.52496,1.09909
3.48,1.28578,1.32886,3.68705,2.85783,4.51208,1.09913
3.49,1.28607,1.32903,3.67419,2.84509,4.49918,1.09917
3.5,1.28639,1.3292,3.66133,2.83234,4.48625,1.09919
3.51,1.28662,1.32944,3.64847,2.8196,4.47333,1.09926
3.52,1.28689,1.32961,3.6356,2.80681,4.46042,1.09933
3.53,1.28696,1.32976,3.62273,2.79404,4.44753,1.09938
3.54,1.28721,1.32992,3.60986,2.78126,4.43462,1.09941
3.55,1.287,1.33007,3.59699,2.7685,4.4217,1.09944
3.56,1.28716,1.33024,3.58412,2.75573,4.40877,1.09947
3.57,1.28746,1.33041,3.57125,2.74292,4.39586,1.09954
3.58,1.28768,1.3306,3.55837,2.73016,4.38295,1.0996
3.59,1.2879,1.33078,3.5455,2.71739,4.37003,1.09965
3.6,1.28813,1.33097,3.53262,2.70463,4.35708,1.09968
3.61,1.28831,1.33112,3.51973,2.69185,4.34414,1.0997
3.62,1.2884,1.33126,3.50685,2.67904,4.33124,1.09975
3.63,1.28853,1.33144,3.49397,2.66625,4.31832,1.09981
3.64,1.28884,1.33161,3.48108,2.65345,4.30539,1.09987
3.65,1.28897,1.33179,3.46819,2.64066,4.29243,1.09991
3.66,1.2891,1.33194,3.45531,2.62786,4.27948,1.09994
3.67,1.2893,1.33204,3.44241,2.61503,4.26656,1.09995
3.68,1.28948,1.33222,3.42952,2.60225,4.25363,1.10001
3.69,1.28973,1.33242,3.41663,2.58945,4.24069,1.10007
3.7,1.28991,1.33262,3.40373,2.57666,4.22772,1.10012
3.71,1.28999,1.33277,3.39083,2.56384,4.21477,1.10015
3.72,1.29018,1.33287,3.37793,2.55101,4.20186,1.10018
3.73,1.2903,1.33298,3.36503,2.5382,4.18892,1.10019
3.74,1.2905,1.33315,3.35212,2.52537,4.17598,1.10026
3.75,1.2907,1.33334,3.33922,2.51256,4.16302,1.10031
3.76,1.29075,1.33348,3.32631,2.49972,4.15007,1.10036
3.77,1.29091,1.3336,3.31341,2.48689,4.13714,1.10039
3.78,1.291,1.33374,3.3005,2.47408,4.12419,1.10041
3.79,1.29119,1.33388,3.28759,2.46126,4.11123,1.10043
3.8,1.29125,1.33408,3.27468,2.44845,4.09827,1.1005
