time,velocity,ratio,centerX,Xmax,Xmin,Ymax
0,0,1,11,10,12,1
0.01,0.0198216,1.00005,10.9999,9.99994,11.9999,1.00001
0.02,0.0396432,1.00012,10.9996,9.99969,11.9995,1.00004
0.03,0.0590069,1.00015,10.9991,9.99921,11.999,1.00005
0.04,0.0774023,1.0001,10.9984,9.99849,11.9984,1.00004
0.05,0.0949535,1.00005,10.9976,9.99759,11.9975,1.00002
0.06,0.1121,1.00002,10.9965,9.99654,11.9965,1.00001
0.07,0.129219,1.00006,10.9953,9.99538,11.9953,1.00001
0.08,0.146302,1.00009,10.994,9.99403,11.9939,1.00001
0.09,0.163789,1.00006,10.9924,9.99248,11.9923,0.999978
0.1,0.18365,0.999964,10.9907,9.99068,11.9907,0.999978
0.11,0.206351,1.00002,10.9887,9.98877,11.9888,1.00001
0.12,0.229311,1.00018,10.9865,9.98669,11.9865,1.00007
0.13,0.250945,1.00027,10.9841,9.98433,11.984,1.0001
0.14,0.269673,1.00018,10.9815,9.98168,11.9814,1.00005
0.15,0.286166,0.999957,10.9788,9.97873,11.9788,0.999974
0.16,0.302613,0.999884,10.9758,9.9758,11.9758,0.999905
0.17,0.324133,0.999929,10.9727,9.97265,11.9728,1.00003
0.18,0.347479,1.00035,10.9693,9.96962,11.9691,1.00009
0.19,0.364957,1.00042,10.9658,9.96602,11.9655,1.00015
0.2,0.379874,1.0002,10.962,9.96219,11.9618,1.00003
0.21,0.397387,0.999779,10.9582,9.95806,11.9584,0.999926
0.22,0.419823,0.999797,10.9541,9.95395,11.9543,0.999959
0.23,0.437655,1.00027,10.9498,9.95002,11.9496,1.00004
0.24,0.452536,1.00043,10.9453,9.9456,11.945,1.00014
0.25,0.472129,1.0003,10.9407,9.94098,11.9406,1.00011
0.26,0.492827,1.00003,10.9359,9.9359,11.936,1.00005
0.27,0.506413,0.99994,10.9309,9.93089,11.9308,0.999907
0.28,0.522843,0.999863,10.9258,9.92562,11.9259,1.00001
0.29,0.542417,1.0003,10.9204,9.92074,11.9203,1.00007
0.3,0.555415,1.00043,10.9149,9.9152,11.9146,1.00014
0.31,0.57254,1.00028,10.9093,9.90945,11.9091,1.0001
0.32,0.590283,1.00003,10.9035,9.90358,11.9036,1.00005
0.33,0.602498,0.999957,10.8975,9.89755,11.8975,0.999918
0.34,0.62126,0.999977,10.8914,9.89127,11.8915,1.00007
0.35,0.634879,1.00045,10.8851,9.88562,11.8848,1.00003
0.36,0.649095,1.00029,10.8787,9.87883,11.8786,1.00017
0.37,0.665295,1.00029,10.8721,9.87228,11.8718,1.00007
0.38,0.677048,1.00004,10.8654,9.86557,11.8655,0.999992
0.39,0.69429,1,10.8586,9.85853,11.8586,1.00003
0.4,0.706376,1.00018,10.8515,9.85168,11.8513,0.999985
0.41,0.722153,1.0002,10.8444,9.84452,11.8445,1.00018
0.42,0.733548,1.00051,10.8371,9.8376,11.8367,1.00004
0.43,0.748608,1.00007,10.8297,9.8296,11.8297,1.00014
0.44,0.761057,1.0002,10.8222,9.82249,11.822,0.999928
0.45,0.774548,0.999948,10.8145,9.81439,11.8147,1.00009
0.46,0.78736,1.00037,10.8067,9.80693,11.8062,1.00001
0.47,0.800348,1.0003,10.7988,9.79898,11.7987,1.00016
0.48,0.811468,1.0004,10.7907,9.79097,11.7903,1.00007
0.49,0.824937,1.00012,10.7825,9.78256,11.7825,1.00007
0.5,0.835592,1.0001,10.7742,9.77426,11.7741,1.00001
0.51,0.850018,1.00015,10.7658,9.76596,11.7658,1.00005
0.52,0.858461,1.00031,10.7572,9.75733,11.7569,1.00011
0.53,0.871837,1.00044,10.7486,9.74894,11.7483,1.00012
0.54,0.879651,1.00028,10.7398,9.74003,11.7397,1.00011
0.55,0.892133,1.00017,10.731,9.7311,11.7308,1.00003
0.56,0.902029,1.00004,10.722,9.72204,11.7221,1.00007
0.57,0.912777,1.00033,10.7129,9.71324,11.7126,1.00001
0.58,0.924847,1.0003,10.7037,9.70389,11.7036,1.00018
0.59,0.933473,1.0005,10.6945,9.69491,11.6941,1.00007
0.6,0.945643,1.00015,10.6851,9.68505,11.6851,1.00018
0.61,0.95453,1.0004,10.6756,9.67601,11.6752,1.00001
0.62,0.964573,1.00004,10.666,9.6658,11.666,1.00012
0.63,0.975792,1.00042,10.6563,9.65678,11.656,1.00003
0.64,0.983152,1.00025,10.6465,9.6465,11.6464,1.0002
0.65,0.993853,1.00054,10.6366,9.63701,11.6361,1.00008
0.66,1.00379,1.00023,10.6266,9.62685,11.6266,1.00013
0.67,1.01208,1.00028,10.6165,9.61667,11.6162,1.00003
0.68,1.02238,1.00011,10.6063,9.60636,11.6064,1.00013
0.69,1.0307,1.00043,10.5961,9.59652,11.5958,1.00008
0.7,1.03812,1.00042,10.5857,9.58583,11.5853,1.00015
0.71,1.04789,1.00043,10.5753,9.57571,11.5751,1.00013
0.72,1.05624,1.00023,10.5648,9.56495,11.5647,1.0001
0.73,1.06441,1.00026,10.5542,9.55417,11.5538,1.00006
0.74,1.07381,1.00028,10.5435,9.54386,11.5435,1.00008
0.75,1.08234,1.00034,10.5327,9.53289,11.5325,1.00013
0.76,1.08943,1.00048,10.5218,9.52201,11.5213,1.00013
0.77,1.0984,1.00039,10.5109,9.51135,11.5109,1.00015
0.78,1.10798,1.00033,10.4999,9.50013,11.4996,1.00008
0.79,1.11447,1.00021,10.4888,9.48869,11.4885,1.00011
0.8,1.12307,1.00039,10.4776,9.47808,11.4774,1.00007
0.81,1.13213,1.0004,10.4663,9.46656,11.4661,1.00017
0.82,1.14017,1.00052,10.4549,9.45519,11.4544,1.00012
0.83,1.14704,1.00032,10.4435,9.44382,11.4435,1.00015
0.84,1.15553,1.00033,10.432,9.43223,11.4317,1.00008
0.85,1.16404,1.00027,10.4204,9.42052,11.4202,1.00011
0.86,1.17091,1.00045,10.4087,9.40915,11.4085,1.0001
0.87,1.17755,1.00042,10.397,9.39715,11.3966,1.00016
0.88,1.18539,1.0005,10.3852,9.38555,11.3848,1.00013
0.89,1.1935,1.00033,10.3733,9.37358,11.3732,1.00013
0.9,1.20041,1.00035,10.3613,9.36146,11.3609,1.00009
0.91,1.20669,1.00033,10.3493,9.34946,11.349,1.00012
0.92,1.21393,1.00046,10.3371,9.3376,11.3369,1.00013
0.93,1.22156,1.00049,10.325,9.32526,11.3246,1.00017
0.94,1.22894,1.00045,10.3127,9.31305,11.3124,1.00014
0.95,1.23442,1.00036,10.3004,9.30067,11.3002,1.00012
0.96,1.24075,1.00037,10.288,9.28822,11.2877,1.00011
0.97,1.24749,1.00044,10.2756,9.27598,11.2754,1.00013
0.98,1.25453,1.00045,10.2631,9.26342,11.2628,1.00016
0.99,1.26113,1.00046,10.2505,9.25079,11.2501,1.00014
1,1.26623,1.00042,10.2379,9.23814,11.2376,1.00015
1.01,1.27193,1.00044,10.2252,9.22552,11.2249,1.00012
1.02,1.27812,1.00042,10.2124,9.21271,11.2121,1.00013
1.03,1.28447,1.00045,10.1996,9.19998,11.1994,1.00013
1.04,1.29068,1.00039,10.1867,9.18698,11.1865,1.00015
1.05,1.29583,1.00048,10.1738,9.17412,11.1734,1.00014
1.06,1.30075,1.00047,10.1608,9.16114,11.1605,1.00016
1.07,1.30621,1.00048,10.1478,9.14813,11.1474,1.00013
1.08,1.3119,1.00045,10.1347,9.13504,11.1344,1.00015
1.09,1.31771,1.00044,10.1215,9.12188,11.1213,1.00014
1.1,1.32348,1.00036,10.1083,9.10856,11.1081,1.00014
1.11,1.32855,1.00045,10.0951,9.09539,11.0948,1.00014
1.12,1.33317,1.0005,10.0818,9.08213,11.0814,1.00016
1.13,1.33789,1.00051,10.0684,9.06876,11.068,1.00015
1.14,1.34302,1.0005,10.055,9.05539,11.0547,1.00014
1.15,1.34859,1.00047,10.0415,9.0419,11.0413,1.00015
1.16,1.35426,1.00037,10.028,9.02826,11.0278,1.00014
1.17,1.35977,1.00036,10.0145,9.01473,11.0143,1.00013
1.18,1.36511,1.00048,10.0008,9.0012,11.0005,1.00015
1.19,1.36975,1.00058,9.98718,8.98756,10.9867,1.00017
1.2,1.37458,1.00059,9.97345,8.97389,10.9731,1.00017
1.21,1.37955,1.00054,9.95968,8.96005,10.9593,1.00017
1.22,1.38475,1.00048,9.94585,8.94619,10.9455,1.00014
1.23,1.39025,1.00036,9.93198,8.93225,10.9318,1.00013
1.24,1.39572,1.00034,9.91805,8.91831,10.9179,1.00012
1.25,1.40126,1.00045,9.90407,8.90437,10.9038,1.00016
1.26,1.4067,1.00062,9.89003,8.89051,10.8896,1.00018
1.27,1.41189,1.00064,9.87594,8.87638,10.8755,1.0002
1.28,1.41665,1.00059,9.8618,8.86219,10.8614,1.00017
1.29,1.42146,1.00049,9.84761,8.84794,10.8473,1.00016
1.3,1.42638,1.00048,9.83337,8.8337,10.833,1.00015
1.31,1.43132,1.00048,9.81907,8.81939,10.8187,1.00015
1.32,1.43608,1.00054,9.80473,8.80515,10.8044,1.00016
1.33,1.44093,1.00054,9.79034,8.79075,10.79,1.00017
1.34,1.44575,1.00049,9.77591,8.77627,10.7756,1.00016
1.35,1.45055,1.00043,9.76143,8.76175,10.7612,1.00015
1.36,1.45529,1.00043,9.7469,8.74721,10.7467,1.00015
1.37,1.45974,1.00051,9.73233,8.7327,10.732,1.00017
1.38,1.46417,1.00058,9.71771,8.71813,10.7173,1.00019
1.39,1.46869,1.00061,9.70305,8.70348,10.7026,1.00019
1.4,1.47283,1.0006,9.68835,8.68877,10.6879,1.00018
1.41,1.47687,1.00056,9.6736,8.674,10.6732,1.00017
1.42,1.4809,1.00054,9.65882,8.65917,10.6584,1.00017
1.43,1.48483,1.00056,9.64399,8.64437,10.6436,1.00017
1.44,1.48863,1.00059,9.62912,8.62951,10.6287,1.00019
1.45,1.4925,1.0006,9.61421,8.61462,10.6138,1.00019
1.46,1.49679,1.00055,9.59926,8.59963,10.5989,1.00018
1.47,1.5009,1.00053,9.58427,8.58463,10.5839,1.00016
1.48,1.50493,1.00052,9.56923,8.5696,10.5689,1.00016
1.49,1.50885,1.00055,9.55416,8.55457,10.5538,1.00017
1.5,1.51281,1.00057,9.53905,8.53946,10.5387,1.00018
1.51,1.51688,1.00056,9.5239,8.52432,10.5235,1.00017
1.52,1.52081,1.00052,9.5087,8.50911,10.5084,1.00016
1.53,1.52461,1.0005,9.49347,8.49387,10.4932,1.00016
1.54,1.52827,1.00051,9.47821,8.47861,10.4779,1.00017
1.55,1.53184,1.00055,9.4629,8.46333,10.4626,1.00018
1.56,1.53535,1.00055,9.44757,8.448,10.4473,1.00019
1.57,1.53887,1.00054,9.4322,8.43261,10.4319,1.00018
1.58,1.54241,1.00052,9.41679,8.41718,10.4165,1.00017
1.59,1.54594,1.00051,9.40135,8.40172,10.401,1.00017
1.6,1.54928,1.00054,9.38587,8.38627,10.3855,1.00018
1.61,1.55263,1.00057,9.37036,8.37078,10.37,1.00019
1.62,1.55596,1.00057,9.35482,8.35523,10.3545,1.00019
1.63,1.55943,1.00055,9.33924,8.33964,10.3389,1.00019
1.64,1.56302,1.00053,9.32363,8.32402,10.3233,1.00018
1.65,1.56651,1.00053,9.30798,8.30837,10.3077,1.00018
1.66,1.56982,1.00056,9.2923,8.29271,10.292,1.00019
1.67,1.57318,1.00058,9.27659,8.27701,10.2762,1.0002
1.68,1.5765,1.00058,9.26084,8.26126,10.2605,1.00019
1.69,1.57967,1.00056,9.24506,8.24547,10.2447,1.00018
1.7,1.58262,1.00055,9.22924,8.22966,10.2289,1.00018
1.71,1.58554,1.00056,9.2134,8.21382,10.2131,1.00019
1.72,1.58839,1.00057,9.19753,8.19797,10.1972,1.00019
1.73,1.59126,1.00058,9.18163,8.18209,10.1813,1.00019
1.74,1.59421,1.00057,9.1657,8.16616,10.1654,1.00019
1.75,1.59709,1.00056,9.14974,8.15018,10.1494,1.00018
1.76,1.59994,1.00056,9.13376,8.13421,10.1334,1.00018
1.77,1.60271,1.00059,9.11774,8.11822,10.1174,1.00018
1.78,1.60568,1.00062,9.10169,8.10218,10.1013,1.00019
1.79,1.60868,1.00062,9.08562,8.0861,10.0852,1.00019
1.8,1.61161,1.00061,9.06951,8.06999,10.0692,1.00019
1.81,1.61458,1.0006,9.05338,8.05384,10.053,1.00019
1.82,1.61753,1.00061,9.03722,8.03767,10.0368,1.00019
1.83,1.62043,1.00064,9.02102,8.02149,10.0206,1.0002
1.84,1.62303,1.00065,9.0048,8.00526,10.0044,1.00021
1.85,1.62557,1.00065,8.98856,7.989,9.98811,1.00021
1.86,1.62816,1.00064,8.97229,7.97272,9.97185,1.00021
1.87,1.63072,1.00064,8.95599,7.95641,9.95553,1.0002
1.88,1.63318,1.00065,8.93967,7.94008,9.93919,1.0002
1.89,1.63595,1.00068,8.92333,7.92377,9.92283,1.00021
1.9,1.63849,1.00069,8.90696,7.90739,9.90644,1.00021
1.91,1.64097,1.00068,8.89057,7.89098,9.89004,1.00021
1.92,1.64318,1.00066,8.87415,7.87456,9.87367,1.00021
1.93,1.64543,1.00065,8.85771,7.85812,9.85725,1.00021
1.94,1.64768,1.00062,8.84125,7.84163,9.84082,1.00021
1.95,1.64989,1.00061,8.82476,7.82518,9.82437,1.00021
1.96,1.65212,1.00061,8.80825,7.80867,9.80788,1.00021
1.97,1.6542,1.00061,8.79172,7.79214,9.79135,1.00021
1.98,1.65646,1.00058,8.77517,7.77562,9.77486,1.0002
1.99,1.65851,1.0006,8.75859,7.75907,9.75826,1.00019
2,1.66072,1.00063,8.74199,7.74251,9.74164,1.0002
2.01,1.66275,1.00067,8.72537,7.72592,9.725,1.0002
2.02,1.66461,1.00068,8.70873,7.70929,9.70836,1.00021
2.03,1.66665,1.00068,8.69207,7.6926,9.69167,1.00021
2.04,1.66867,1.00066,8.67539,7.6759,9.67501,1.00021
2.05,1.67078,1.00067,8.65869,7.6592,9.65828,1.00021
2.06,1.67294,1.0007,8.64198,7.64247,9.64149,1.00021
2.07,1.67489,1.00072,8.62524,7.62574,9.62474,1.00022
2.08,1.67648,1.0007,8.60849,7.60895,9.608,1.00022
2.09,1.67816,1.00067,8.59172,7.59214,9.59124,1.00022
2.1,1.67979,1.00062,8.57493,7.57532,9.57449,1.00021
2.11,1.6813,1.0006,8.55813,7.55851,9.55773,1.00021
2.12,1.68287,1.00062,8.5413,7.54169,9.54089,1.00021
2.13,1.68456,1.00063,8.52446,7.52489,9.52405,1.00021
2.14,1.68619,1.00066,8.50761,7.50809,9.50719,1.0002
2.15,1.68785,1.00067,8.49073,7.49124,9.4903,1.0002
2.16,1.68965,1.00067,8.47384,7.47435,9.47343,1.00021
2.17,1.69154,1.00067,8.45693,7.45745,9.45653,1.00022
2.18,1.69323,1.00069,8.44001,7.44054,9.43959,1.00022
2.19,1.69505,1.00072,8.42307,7.4236,9.4226,1.00022
2.2,1.69701,1.00071,8.40611,7.40664,9.40565,1.00021
2.21,1.69865,1.00069,8.38914,7.38964,9.3887,1.00022
2.22,1.70009,1.00065,8.37215,7.37259,9.37173,1.00022
2.23,1.70145,1.00063,8.35514,7.35557,9.35475,1.00022
2.24,1.70286,1.00063,8.33812,7.33854,9.33773,1.00022
2.25,1.70434,1.00064,8.32108,7.32154,9.32067,1.0002
2.26,1.70599,1.00067,8.30403,7.30452,9.30359,1.0002
2.27,1.70747,1.00068,8.28696,7.28747,9.28652,1.00021
2.28,1.70923,1.00068,8.26987,7.27037,9.26943,1.00022
2.29,1.71109,1.00069,8.25277,7.25327,9.25233,1.00022
2.3,1.71273,1.00073,8.23565,7.23617,9.23517,1.00022
2.31,1.71421,1.00073,8.21852,7.21905,9.21802,1.00022
2.32,1.71536,1.0007,8.20137,7.20187,9.20091,1.00022
2.33,1.71658,1.00065,8.18422,7.18466,9.18381,1.00022
2.34,1.71791,1.00062,8.16704,7.16746,9.16666,1.00022
2.35,1.71912,1.00062,8.14986,7.15028,9.14949,1.00022
2.36,1.72033,1.00068,8.13266,7.13315,9.13222,1.00021
2.37,1.72167,1.00072,8.11544,7.11598,9.11497,1.00021
2.38,1.72313,1.0007,8.09822,7.09873,9.09777,1.00021
2.39,1.72475,1.00068,8.08098,7.08146,9.08056,1.00022
2.4,1.72628,1.00071,8.06372,7.06423,9.06325,1.00022
2.41,1.72749,1.00074,8.04646,7.047,9.04596,1.00022
2.42,1.72884,1.00072,8.02918,7.0297,9.02871,1.00023
2.43,1.73003,1.00066,8.01188,7.01234,9.01148,1.00023
2.44,1.73102,1.00063,7.99458,6.995,8.99419,1.00022
2.45,1.73206,1.00064,7.97726,6.97772,8.97687,1.00021
2.46,1.73309,1.00071,7.95993,6.96046,8.95946,1.00021
2.47,1.73439,1.00074,7.94259,6.94315,8.94211,1.00021
2.48,1.73573,1.0007,7.92524,6.92575,8.9248,1.00023
2.49,1.73741,1.0007,7.90787,6.90837,8.90743,1.00023
2.5,1.73881,1.00073,7.8905,6.89103,8.89001,1.00022
2.51,1.73971,1.00073,7.87311,6.87363,8.87263,1.00022
2.52,1.74056,1.00068,7.85571,6.85618,8.85529,1.00023
2.53,1.74142,1.00065,7.8383,6.83874,8.8379,1.00023
2.54,1.74224,1.00063,7.82088,6.82132,8.82048,1.00022
2.55,1.74337,1.0007,7.80344,6.80396,8.80298,1.00021
2.56,1.74453,1.00073,7.786,6.78657,8.78552,1.00021
2.57,1.74587,1.0007,7.76855,6.76905,8.7681,1.00023
2.58,1.74741,1.00072,7.75108,6.75159,8.75062,1.00024
2.59,1.74835,1.00075,7.73361,6.73415,8.73311,1.00023
2.6,1.74892,1.00072,7.71612,6.71664,8.71565,1.00023
2.61,1.74962,1.00066,7.69863,6.6991,8.69824,1.00023
2.62,1.75035,1.00061,7.68113,6.68156,8.68079,1.00023
2.63,1.75132,1.00067,7.66362,6.66409,8.66319,1.00022
2.64,1.7525,1.00075,7.6461,6.64666,8.64559,1.00021
2.65,1.75362,1.00074,7.62857,6.62912,8.62808,1.00022
2.66,1.75497,1.0007,7.61102,6.6115,8.61059,1.00024
2.67,1.7562,1.00072,7.59347,6.59398,8.59299,1.00023
2.68,1.7572,1.00072,7.57591,6.57643,8.57543,1.00022
2.69,1.75809,1.00068,7.55833,6.55881,8.55791,1.00023
2.7,1.75884,1.00063,7.54074,6.54118,8.54037,1.00023
2.71,1.75964,1.00066,7.52315,6.52361,8.52273,1.00022
2.72,1.76069,1.00074,7.50555,6.50609,8.50505,1.00022
2.73,1.76158,1.00075,7.48793,6.4885,8.48743,1.00022
2.74,1.76246,1.00071,7.47031,6.47081,8.46988,1.00024
2.75,1.76333,1.00074,7.45269,6.45322,8.4522,1.00023
2.76,1.76385,1.00074,7.43505,6.43559,8.43457,1.00023
2.77,1.76434,1.00069,7.41741,6.41791,8.41699,1.00023
2.78,1.76523,1.00062,7.39976,6.40021,8.39942,1.00023
2.79,1.76589,1.00067,7.38211,6.38258,8.38168,1.00022
2.8,1.76666,1.00075,7.36444,6.36501,8.36394,1.00022
2.81,1.76769,1.00075,7.34677,6.34733,8.34627,1.00023
2.82,1.76897,1.00072,7.32909,6.32959,8.32863,1.00024
2.83,1.76997,1.00072,7.31139,6.31191,8.31092,1.00023
2.84,1.77058,1.0007,7.29369,6.29419,8.29324,1.00023
2.85,1.7714,1.00067,7.27598,6.27645,8.27557,1.00023
2.86,1.77214,1.00065,7.25826,6.25871,8.25786,1.00022
2.87,1.77279,1.00072,7.24053,6.24106,8.24006,1.00022
2.88,1.77364,1.00078,7.2228,6.22339,8.22227,1.00022
2.89,1.77438,1.00074,7.20506,6.20558,8.20459,1.00024
2.9,1.77524,1.00073,7.18731,6.18784,8.18685,1.00024
2.91,1.7757,1.00072,7.16956,6.17008,8.1691,1.00023
2.92,1.7762,1.0007,7.1518,6.1523,8.15136,1.00023
2.93,1.77655,1.00065,7.13404,6.1345,8.13367,1.00023
2.94,1.77722,1.0007,7.11627,6.11677,8.11582,1.00023
2.95,1.77811,1.00075,7.09849,6.09904,8.09798,1.00022
2.96,1.77914,1.00074,7.0807,6.08125,8.08022,1.00022
2.97,1.78023,1.00072,7.06291,6.06342,8.06245,1.00024
2.98,1.78076,1.00074,7.0451,6.04563,8.04462,1.00023
2.99,1.78129,1.00071,7.0273,6.0278,8.02685,1.00024
3,1.78166,1.00068,7.00948,6.00997,8.00908,1.00023
3.01,1.78228,1.00068,6.99166,5.99214,7.99123,1.00023
3.02,1.78313,1.00074,6.97383,5.97438,7.97333,1.00022
3.03,1.7839,1.00076,6.95599,5.95656,7.9555,1.00023
3.04,1.78493,1.00075,6.93815,5.93869,7.93767,1.00024
3.05,1.78548,1.00075,6.9203,5.92083,7.91982,1.00024
3.06,1.78595,1.00071,6.90245,5.90295,7.90199,1.00024
3.07,1.78669,1.00067,6.88458,5.88507,7.88418,1.00023
3.08,1.78714,1.00068,6.86671,5.86719,7.86628,1.00023
3.09,1.78779,1.00075,6.84883,5.84938,7.84834,1.00022
3.1,1.78863,1.00077,6.83095,5.83152,7.83044,1.00023
3.11,1.78966,1.00075,6.81306,5.8136,7.81258,1.00024
3.12,1.79017,1.00074,6.79516,5.7957,7.79469,1.00024
3.13,1.79064,1.0007,6.77726,5.77776,7.77682,1.00023
3.14,1.79094,1.00066,6.75935,5.75983,7.75897,1.00023
3.15,1.79144,1.0007,6.74144,5.74194,7.74099,1.00023
3.16,1.79208,1.00076,6.72352,5.72408,7.72301,1.00023
3.17,1.79286,1.00078,6.70559,5.70616,7.70508,1.00023
3.18,1.79381,1.00075,6.68766,5.6882,7.68719,1.00024
3.19,1.7942,1.00073,6.66972,5.67026,7.66926,1.00024
3.2,1.79456,1.0007,6.65178,5.65228,7.65135,1.00023
3.21,1.79471,1.00067,6.63383,5.63432,7.63345,1.00023
3.22,1.79515,1.00072,6.61588,5.6164,7.61542,1.00023
3.23,1.79585,1.00078,6.59792,5.59851,7.5974,1.00023
3.24,1.79663,1.00076,6.57996,5.58052,7.57948,1.00024
3.25,1.79727,1.00074,6.56199,5.56253,7.56152,1.00024
3.26,1.79754,1.00073,6.54402,5.54455,7.54356,1.00024
3.27,1.79786,1.00071,6.52605,5.52655,7.52561,1.00024
3.28,1.79806,1.00068,6.50806,5.50855,7.50765,1.00023
3.29,1.79852,1.00075,6.49008,5.49062,7.48959,1.00023
3.3,1.79918,1.00078,6.47209,5.47267,7.47157,1.00023
3.31,1.8001,1.00076,6.45409,5.45464,7.45361,1.00024
3.32,1.80052,1.00075,6.43609,5.43663,7.43561,1.00024
3.33,1.80076,1.00071,6.41809,5.41859,7.41765,1.00024
3.34,1.80104,1.00069,6.40008,5.40057,7.39967,1.00024
3.35,1.80176,1.00071,6.38206,5.38257,7.38162,1.00023
3.36,1.80231,1.00076,6.36404,5.3646,7.36354,1.00023
3.37,1.80314,1.00077,6.34601,5.34657,7.34551,1.00023
3.38,1.80397,1.00076,6.32798,5.32852,7.3275,1.00024
3.39,1.80421,1.00075,6.30994,5.31048,7.30947,1.00024
3.4,1.80429,1.00071,6.2919,5.29241,7.29146,1.00024
3.41,1.80459,1.00068,6.27385,5.27434,7.27344,1.00023
3.42,1.80519,1.00073,6.2558,5.25633,7.25532,1.00023
3.43,1.806,1.00078,6.23774,5.23832,7.23722,1.00023
3.44,1.80681,1.00077,6.21968,5.22024,7.21919,1.00024
3.45,1.80728,1.00076,6.20161,5.20216,7.20112,1.00024
3.46,1.80746,1.00072,6.18354,5.18404,7.18309,1.00024
3.47,1.80785,1.00067,6.16546,5.16595,7.16508,1.00024
3.48,1.80837,1.00071,6.14738,5.14788,7.14692,1.00023
3.49,1.80895,1.00077,6.12929,5.12986,7.12878,1.00023
3.5,1.81002,1.00077,6.11119,5.11176,7.11069,1.00024
3.51,1.81096,1.00075,6.09309,5.09362,7.09261,1.00025
3.52,1.8113,1.00073,6.07498,5.0755,7.07453,1.00024
3.53,1.81156,1.0007,6.05687,5.05736,7.05644,1.00024
3.54,1.81196,1.00069,6.03875,5.03923,7.03831,1.00023
3.55,1.81274,1.00075,6.02062,5.02117,7.02012,1.00023
3.56,1.81357,1.00078,6.00249,5.00306,7.00197,1.00024
3.57,1.81427,1.00077,5.98435,4.98491,6.98386,1.00025
3.58,1.81435,1.00076,5.96621,4.96676,6.96573,1.00025
3.59,1.81429,1.00072,5.94807,4.94858,6.94763,1.00024
3.6,1.81438,1.00068,5.92992,4.9304,6.9295,1.00023
3.61,1.8148,1.00075,5.91177,4.91232,6.91129,1.00023
3.62,1.81541,1.00078,5.89362,4.8942,6.8931,1.00023
3.63,1.81665,1.00078,5.87546,4.87603,6.87497,1.00024
3.64,1.81687,1.00076,5.8573,4.85784,6.85682,1.00025
3.65,1.81704,1.00071,5.83913,4.83962,6.83869,1.00024
3.66,1.81727,1.00067,5.82095,4.82144,6.82056,1.00023
3.67,1.81777,1.00073,5.80278,4.8033,6.8023,1.00023
3.68,1.81857,1.00079,5.78459,4.78517,6.78406,1.00023
3.69,1.81977,1.00078,5.7664,4.76697,6.7659,1.00024
3.7,1.82005,1.00076,5.74821,4.74875,6.74773,1.00025
3.71,1.82001,1.00071,5.73001,4.73051,6.72957,1.00024
3.72,1.82002,1.00068,5.7118,4.7123,6.71141,1.00024
3.73,1.82015,1.00074,5.6936,4.69413,6.69312,1.00023
3.74,1.82066,1.00079,5.6754,4.67598,6.67486,1.00023
3.75,1.8214,1.00078,5.65719,4.65775,6.65668,1.00024
3.76,1.82162,1.00076,5.63897,4.63952,6.63849,1.00025
3.77,1.82149,1.00072,5.62076,4.62126,6.62032,1.00025
3.78,1.82157,1.00069,5.60254,4.60304,6.60215,1.00024
3.79,1.82186,1.00073,5.58432,4.58484,6.58384,1.00023
