time,velocity,ratio,centerX,Xmax,Xmin,Ymax
0,0,1,7.25,6.25,8.25,1
0.01,0.0197087,0.999989,7.24991,6.24989,8.24993,1.00001
0.02,0.0390958,0.999999,7.24963,6.24961,8.24963,1.00001
0.03,0.0581878,1.00001,7.24916,6.24914,8.24915,1.00002
0.04,0.0770027,1.00003,7.2485,6.24848,8.24846,1.00002
0.05,0.0955177,1.00005,7.24765,6.24763,8.24758,1.00002
0.06,0.11376,1.00007,7.24663,6.24661,8.24652,1.00003
0.07,0.131745,1.00009,7.24542,6.2454,8.24527,1.00003
0.08,0.149453,1.00011,7.24403,6.24401,8.24384,1.00002
0.09,0.166916,1.00013,7.24247,6.24246,8.24223,1.00002
0.1,0.184128,1.00017,7.24073,6.24074,8.24045,1.00003
0.11,0.201108,1.00023,7.23882,6.23886,8.2385,1.00005
0.12,0.217854,1.00029,7.23674,6.23682,8.23639,1.00008
0.13,0.234356,1.00034,7.2345,6.23463,8.23414,1.0001
0.14,0.250608,1.00038,7.23209,6.23228,8.23175,1.00011
0.15,0.266661,1.00042,7.22952,6.22976,8.22921,1.00014
0.16,0.282492,1.00047,7.22679,6.2271,8.22648,1.00016
0.17,0.298096,1.00058,7.22391,6.22431,8.22356,1.0002
0.18,0.313484,1.00073,7.22086,6.22137,8.22045,1.00027
0.19,0.328636,1.0009,7.21767,6.21831,8.21716,1.00033
0.2,0.343621,1.00107,7.21432,6.21511,8.21374,1.00039
0.21,0.358349,1.00126,7.21083,6.21177,8.21014,1.00045
0.22,0.372887,1.00152,7.20719,6.2083,8.20633,1.00054
0.23,0.387219,1.00185,7.2034,6.20472,8.20231,1.00065
0.24,0.4013,1.00219,7.19947,6.20103,8.19816,1.00075
0.25,0.415212,1.00253,7.19541,6.19719,8.19385,1.00085
0.26,0.428896,1.00293,7.1912,6.19322,8.18934,1.00098
0.27,0.442393,1.00339,7.18686,6.18913,8.18464,1.00114
0.28,0.455647,1.00387,7.18238,6.18493,8.17979,1.00129
0.29,0.468735,1.0044,7.17777,6.18065,8.17475,1.00143
0.3,0.481592,1.00503,7.17303,6.17626,8.16952,1.00164
0.31,0.494278,1.00568,7.16817,6.17178,8.16416,1.00185
0.32,0.506605,1.00635,7.16318,6.16719,8.15865,1.00205
0.33,0.518869,1.00711,7.15806,6.1625,8.15297,1.00231
0.34,0.530921,1.00791,7.15282,6.15773,8.14714,1.00258
0.35,0.542768,1.00875,7.14747,6.15288,8.14113,1.00283
0.36,0.554431,1.0097,7.14199,6.14793,8.13494,1.00314
0.37,0.565835,1.0107,7.13641,6.14291,8.12858,1.00346
0.38,0.577045,1.01176,7.1307,6.13783,8.12203,1.00377
0.39,0.588063,1.01292,7.12489,6.13263,8.11532,1.00415
0.4,0.598864,1.01411,7.11896,6.12732,8.1084,1.00452
0.41,0.60947,1.01534,7.11293,6.12191,8.10136,1.0049
0.42,0.619937,1.01667,7.1068,6.11646,8.09415,1.00534
0.43,0.630158,1.01806,7.10056,6.11096,8.08679,1.00575
0.44,0.639908,1.01954,7.09422,6.1054,8.07926,1.00621
0.45,0.649672,1.0211,7.08778,6.09976,8.07154,1.00669
0.46,0.65922,1.02271,7.08125,6.09406,8.06366,1.00716
0.47,0.668588,1.02447,7.07462,6.0883,8.05558,1.00771
0.48,0.677738,1.02627,7.0679,6.08247,8.0473,1.00823
0.49,0.686692,1.02818,7.06108,6.07659,8.03887,1.00879
0.5,0.695403,1.03016,7.05418,6.07062,8.03027,1.00937
0.51,0.703884,1.03217,7.0472,6.06457,8.0215,1.00994
0.52,0.712158,1.03432,7.04013,6.05845,8.01256,1.01059
0.53,0.720229,1.03652,7.03297,6.05229,8.00344,1.01121
0.54,0.728064,1.03886,7.02574,6.0461,7.99414,1.01187
0.55,0.73574,1.04128,7.01843,6.03984,7.98466,1.01255
0.56,0.743144,1.04376,7.01104,6.03353,7.97504,1.01323
0.57,0.750425,1.04637,7.00358,6.02719,7.96526,1.01397
0.58,0.757424,1.04901,6.99605,6.0208,7.95532,1.01467
0.59,0.764267,1.05183,6.98845,6.01439,7.9452,1.01544
0.6,0.770806,1.05469,6.98078,6.00791,7.93491,1.01619
0.61,0.777231,1.05764,6.97305,6.00134,7.92445,1.01698
0.62,0.783509,1.06066,6.96526,5.99469,7.91383,1.01778
0.63,0.789484,1.06381,6.9574,5.98804,7.90304,1.0186
0.64,0.795275,1.06709,6.94948,5.98139,7.89211,1.01945
0.65,0.80088,1.07046,6.94151,5.97471,7.881,1.0203
0.66,0.80627,1.07397,6.93348,5.968,7.86973,1.0212
0.67,0.811436,1.07755,6.9254,5.96126,7.85829,1.02207
0.68,0.816501,1.08128,6.91726,5.95449,7.84672,1.02301
0.69,0.821349,1.08506,6.90908,5.9477,7.83499,1.02392
0.7,0.826047,1.08897,6.90085,5.94083,7.82313,1.02489
0.71,0.830464,1.09293,6.89257,5.93391,7.81112,1.02583
0.72,0.834834,1.09703,6.88425,5.92698,7.79898,1.02682
0.73,0.838964,1.10122,6.87589,5.92005,7.7867,1.02779
0.74,0.842903,1.10551,6.86749,5.91308,7.77429,1.02879
0.75,0.846517,1.10992,6.85905,5.9061,7.76175,1.02981
0.76,0.850153,1.1144,6.85057,5.8991,7.74909,1.03082
0.77,0.853572,1.11902,6.84206,5.89209,7.73629,1.03185
0.78,0.856802,1.12371,6.83351,5.88506,7.72339,1.03287
0.79,0.859908,1.1285,6.82493,5.87797,7.71038,1.03394
0.8,0.862958,1.13331,6.81632,5.8708,7.69728,1.03498
0.81,0.865777,1.1383,6.80768,5.86366,7.68406,1.03608
0.82,0.868497,1.14335,6.79902,5.85653,7.67074,1.03714
0.83,0.871062,1.14856,6.79032,5.84937,7.65732,1.03827
0.84,0.873477,1.15379,6.78161,5.84221,7.64382,1.03934
0.85,0.87579,1.15919,6.77286,5.83503,7.63023,1.04049
0.86,0.877938,1.16461,6.7641,5.82784,7.61657,1.04159
0.87,0.879868,1.17017,6.75532,5.82061,7.60282,1.04274
0.88,0.881815,1.17573,6.74651,5.81333,7.58902,1.04386
0.89,0.883635,1.1814,6.73769,5.80602,7.57514,1.04502
0.9,0.885183,1.18714,6.72885,5.79872,7.56121,1.04616
0.91,0.886811,1.19299,6.72,5.79142,7.5472,1.04731
0.92,0.888323,1.19889,6.71112,5.78409,7.53313,1.04846
0.93,0.889738,1.20491,6.70224,5.77677,7.519,1.04962
0.94,0.891035,1.21101,6.69334,5.76943,7.50483,1.05079
0.95,0.892188,1.21721,6.68443,5.76211,7.49061,1.05197
0.96,0.893312,1.22344,6.6755,5.75472,7.47636,1.05316
0.97,0.894349,1.22971,6.66657,5.74727,7.46206,1.05435
0.98,0.89532,1.23606,6.65763,5.73983,7.44775,1.05555
0.99,0.89625,1.24251,6.64867,5.73242,7.4334,1.05674
1,0.897096,1.24902,6.63971,5.72501,7.41907,1.05796
1.01,0.897924,1.25547,6.63074,5.71759,7.40484,1.05915
1.02,0.898637,1.26187,6.62176,5.71015,7.39079,1.06038
1.03,0.899299,1.26816,6.61277,5.70271,7.37688,1.06156
1.04,0.899921,1.2744,6.60378,5.69524,7.36315,1.06279
1.05,0.90044,1.28045,6.59479,5.68773,7.34957,1.06395
1.06,0.900947,1.28649,6.58578,5.68018,7.33614,1.06518
1.07,0.901418,1.29241,6.57678,5.67266,7.32285,1.06635
1.08,0.901818,1.29835,6.56776,5.66514,7.30969,1.0676
1.09,0.902137,1.30415,6.55875,5.65761,7.29665,1.06878
1.1,0.902415,1.30998,6.54973,5.65007,7.28373,1.07003
1.11,0.902746,1.31567,6.54071,5.64253,7.27093,1.07122
1.12,0.902958,1.32138,6.53168,5.63499,7.25824,1.07246
1.13,0.903177,1.32693,6.52266,5.62739,7.24564,1.07365
1.14,0.90329,1.33245,6.51363,5.61975,7.23314,1.07489
1.15,0.903432,1.33791,6.5046,5.61214,7.22074,1.07609
1.16,0.903546,1.34335,6.49557,5.60454,7.20846,1.07732
1.17,0.903642,1.34871,6.48654,5.59693,7.19625,1.07851
1.18,0.903699,1.35406,6.4775,5.58932,7.18411,1.07972
1.19,0.90374,1.35931,6.46847,5.58169,7.17208,1.08092
1.2,0.903712,1.36457,6.45944,5.57406,7.16011,1.08214
1.21,0.903765,1.36973,6.4504,5.56639,7.14821,1.08334
1.22,0.903766,1.37482,6.44137,5.55867,7.13642,1.08456
1.23,0.903725,1.37991,6.43234,5.55097,7.12465,1.08577
1.24,0.903663,1.38492,6.4233,5.54327,7.11301,1.08698
1.25,0.903533,1.38995,6.41427,5.53557,7.10136,1.08819
1.26,0.903436,1.39487,6.40524,5.52786,7.08985,1.08939
1.27,0.903373,1.39982,6.39621,5.52014,7.07833,1.09059
1.28,0.903243,1.40467,6.38718,5.51244,7.06695,1.09179
1.29,0.903088,1.40953,6.37816,5.50469,7.05555,1.09299
1.3,0.902925,1.41421,6.36913,5.49687,7.04425,1.09416
1.31,0.902695,1.41893,6.3601,5.48906,7.03298,1.09536
1.32,0.90247,1.42361,6.35108,5.4813,7.02178,1.09653
1.33,0.902298,1.42831,6.34206,5.47353,7.01063,1.09772
1.34,0.902113,1.43298,6.33304,5.46577,6.99949,1.0989
1.35,0.901895,1.43761,6.32403,5.45801,6.98846,1.10009
1.36,0.901689,1.44224,6.31502,5.45026,6.97741,1.10126
1.37,0.901491,1.44683,6.306,5.44247,6.96644,1.10246
1.38,0.901206,1.45129,6.29699,5.43464,6.95553,1.10362
1.39,0.900995,1.45583,6.28799,5.42682,6.94461,1.10482
1.4,0.90072,1.46025,6.27898,5.41902,6.93378,1.10597
1.41,0.900641,1.46474,6.26998,5.41121,6.92297,1.10716
1.42,0.900413,1.46916,6.26098,5.40341,6.91216,1.1083
1.43,0.900174,1.47359,6.25198,5.39561,6.90144,1.10949
1.44,0.900015,1.47792,6.24298,5.38782,6.89074,1.1106
1.45,0.899764,1.48235,6.23399,5.38,6.88002,1.11178
1.46,0.899524,1.48656,6.225,5.37211,6.8694,1.1129
1.47,0.89921,1.49087,6.21601,5.36425,6.85879,1.11409
1.48,0.898981,1.49516,6.20702,5.35641,6.84818,1.11521
1.49,0.898732,1.49947,6.19804,5.34858,6.83763,1.1164
1.5,0.898486,1.50367,6.18905,5.34075,6.82713,1.11752
1.51,0.898219,1.50797,6.18007,5.33291,6.81663,1.1187
1.52,0.897997,1.5122,6.1711,5.32508,6.80614,1.11982
1.53,0.897727,1.51639,6.16212,5.31721,6.79573,1.121
1.54,0.897424,1.52046,6.15315,5.30931,6.78534,1.12212
1.55,0.897172,1.52466,6.14418,5.30143,6.77493,1.1233
1.56,0.896945,1.52874,6.13522,5.29356,6.76458,1.1244
1.57,0.896673,1.53283,6.12625,5.28567,6.75428,1.12556
1.58,0.896435,1.53686,6.11729,5.27778,6.74396,1.12665
1.59,0.896176,1.541,6.10833,5.2699,6.73363,1.12781
1.6,0.895968,1.54501,6.09938,5.26204,6.72338,1.12889
1.61,0.895709,1.54904,6.09042,5.25413,6.71315,1.13004
1.62,0.895449,1.55293,6.08147,5.24617,6.70293,1.13113
1.63,0.895268,1.55697,6.07252,5.23823,6.69269,1.13227
1.64,0.895051,1.56091,6.06357,5.23033,6.6825,1.13335
1.65,0.894825,1.56491,6.05463,5.22242,6.67235,1.1345
1.66,0.894529,1.56883,6.04568,5.21452,6.66219,1.13557
1.67,0.894293,1.57286,6.03675,5.20663,6.65203,1.13671
1.68,0.8941,1.57678,6.02781,5.19873,6.64189,1.13777
1.69,0.893876,1.58069,6.01887,5.19079,6.63182,1.13891
1.7,0.893633,1.58448,6.00994,5.18282,6.62174,1.13996
1.71,0.893437,1.5884,6.00101,5.17487,6.61165,1.14108
1.72,0.893198,1.59225,5.99208,5.16694,6.60155,1.14213
1.73,0.893007,1.59615,5.98315,5.159,6.5915,1.14324
1.74,0.892838,1.59992,5.97423,5.15106,6.58151,1.1443
1.75,0.892603,1.60381,5.9653,5.14313,6.57149,1.14541
1.76,0.892366,1.60765,5.95638,5.1352,6.56147,1.14647
1.77,0.892155,1.61152,5.94746,5.12723,6.55144,1.14757
1.78,0.89193,1.61523,5.93855,5.11921,6.54145,1.14863
1.79,0.891734,1.61901,5.92963,5.11124,6.53152,1.14972
1.8,0.891556,1.62275,5.92072,5.10328,6.52158,1.15077
1.81,0.891402,1.62658,5.91181,5.09532,6.51161,1.15186
1.82,0.891284,1.63036,5.9029,5.08736,6.50165,1.15291
1.83,0.891051,1.63419,5.894,5.0794,6.4917,1.15399
1.84,0.890924,1.6379,5.88509,5.07143,6.4818,1.15502
1.85,0.890713,1.6416,5.87618,5.06341,6.4719,1.15609
1.86,0.890558,1.64521,5.86728,5.05538,6.46201,1.15711
1.87,0.890377,1.64894,5.85838,5.04737,6.4521,1.15816
1.88,0.890237,1.65263,5.84948,5.03937,6.4422,1.15918
1.89,0.890017,1.65632,5.84059,5.03136,6.43233,1.16022
1.9,0.889777,1.65996,5.83169,5.02335,6.42249,1.16125
1.91,0.889689,1.66365,5.8228,5.01537,6.41264,1.16229
1.92,0.889498,1.66732,5.81391,5.00736,6.4028,1.16332
1.93,0.889285,1.67094,5.80502,4.9993,6.39295,1.16434
1.94,0.88901,1.67455,5.79613,4.99123,6.38309,1.16537
1.95,0.888882,1.67819,5.78725,4.98321,6.37327,1.16639
1.96,0.888694,1.6818,5.77836,4.97519,6.36348,1.16741
1.97,0.888453,1.68545,5.76948,4.96718,6.35366,1.16842
1.98,0.888304,1.68908,5.7606,4.95916,6.34387,1.16944
1.99,0.888128,1.69272,5.75172,4.95116,6.33407,1.17043
2,0.887922,1.69635,5.74285,4.94313,6.32425,1.17144
2.01,0.887746,1.69989,5.73397,4.93506,6.31446,1.17242
2.02,0.887567,1.70339,5.7251,4.92699,6.30472,1.1734
2.03,0.8874,1.70693,5.71623,4.91895,6.29495,1.17437
2.04,0.887248,1.71048,5.70736,4.9109,6.28521,1.17536
2.05,0.886969,1.71401,5.69849,4.90286,6.27545,1.17632
2.06,0.886898,1.71762,5.68963,4.89482,6.2657,1.17732
2.07,0.886823,1.72117,5.68076,4.88679,6.25593,1.17826
2.08,0.886657,1.72475,5.6719,4.87871,6.24618,1.17928
2.09,0.88648,1.72811,5.66304,4.87059,6.23648,1.1802
2.1,0.886308,1.73164,5.65418,4.8625,6.22677,1.18121
2.11,0.886171,1.73509,5.64532,4.85444,6.21706,1.18213
2.12,0.885965,1.73863,5.63646,4.84637,6.20736,1.18314
2.13,0.885808,1.7421,5.62761,4.83831,6.19764,1.18405
2.14,0.885568,1.74567,5.61876,4.83024,6.18792,1.18503
2.15,0.885365,1.74915,5.60991,4.82217,6.1782,1.18594
2.16,0.885198,1.75258,5.60106,4.81406,6.16853,1.18691
2.17,0.885052,1.75589,5.59221,4.80594,6.15888,1.1878
2.18,0.88497,1.7593,5.58337,4.79784,6.14922,1.18875
2.19,0.884842,1.76267,5.57452,4.78974,6.13955,1.18964
2.2,0.88472,1.76609,5.56568,4.78163,6.12989,1.19057
2.21,0.884488,1.76951,5.55684,4.77353,6.1202,1.19147
2.22,0.884324,1.77297,5.54799,4.76544,6.11052,1.19239
2.23,0.884238,1.77643,5.53916,4.75735,6.10083,1.1933
2.24,0.884097,1.77971,5.53032,4.7492,6.09121,1.1942
2.25,0.883933,1.78299,5.52148,4.74103,6.0816,1.19512
2.26,0.883743,1.78631,5.51265,4.73291,6.07198,1.196
2.27,0.883597,1.78972,5.50382,4.72479,6.06235,1.19692
2.28,0.883512,1.79306,5.49499,4.71668,6.05271,1.19779
2.29,0.883357,1.79652,5.48616,4.70857,6.04305,1.19871
2.3,0.883176,1.79985,5.47733,4.70047,6.03342,1.19956
2.31,0.882981,1.80325,5.4685,4.69234,6.02379,1.20048
2.32,0.882882,1.80649,5.45968,4.68417,6.01417,1.20131
2.33,0.882748,1.8098,5.45085,4.67603,6.00459,1.20221
2.34,0.8826,1.813,5.44203,4.66789,5.995,1.20303
2.35,0.882407,1.81635,5.43321,4.65975,5.9854,1.20392
2.36,0.882399,1.81956,5.42439,4.65161,5.97581,1.20473
2.37,0.882282,1.8229,5.41557,4.64348,5.96623,1.20561
2.38,0.882125,1.82614,5.40675,4.63536,5.95665,1.20643
2.39,0.881976,1.82941,5.39794,4.6272,5.94706,1.20729
2.4,0.881828,1.83259,5.38912,4.61898,5.93747,1.20812
2.41,0.881649,1.83585,5.38031,4.61082,5.92788,1.20896
2.42,0.881501,1.83915,5.3715,4.60267,5.91828,1.20981
2.43,0.881363,1.84233,5.36268,4.59452,5.90875,1.21062
2.44,0.881237,1.84556,5.35388,4.58636,5.89922,1.21147
2.45,0.881116,1.84874,5.34507,4.57822,5.88967,1.21227
2.46,0.880958,1.85198,5.33626,4.57006,5.88014,1.21312
2.47,0.880754,1.85508,5.32746,4.56186,5.87059,1.2139
2.48,0.880633,1.8583,5.31865,4.55365,5.86103,1.21475
2.49,0.880491,1.86142,5.30985,4.54548,5.85148,1.21551
2.5,0.880348,1.86466,5.30105,4.5373,5.84194,1.21636
2.51,0.880188,1.86775,5.29225,4.52912,5.83241,1.21711
2.52,0.880068,1.87097,5.28346,4.52094,5.82287,1.21794
2.53,0.879876,1.87412,5.27466,4.51279,5.81333,1.21869
2.54,0.879687,1.87725,5.26587,4.5046,5.80382,1.21949
2.55,0.879435,1.88024,5.25708,4.49636,5.7943,1.22023
2.56,0.879297,1.88328,5.24828,4.48814,5.78482,1.221
2.57,0.879281,1.88637,5.2395,4.47996,5.77533,1.22177
2.58,0.879106,1.88942,5.23071,4.47177,5.76584,1.22252
2.59,0.878966,1.89256,5.22192,4.4636,5.75635,1.2233
2.6,0.878817,1.89561,5.21314,4.45542,5.74685,1.22403
2.61,0.878583,1.89879,5.20435,4.44724,5.73736,1.22483
2.62,0.878413,1.90177,5.19558,4.43902,5.72786,1.22553
2.63,0.878302,1.90489,5.18679,4.4308,5.71837,1.22634
2.64,0.878186,1.90788,5.17802,4.42259,5.70889,1.22705
2.65,0.878124,1.91099,5.16924,4.41439,5.6994,1.22783
2.66,0.878059,1.914,5.16046,4.40618,5.68992,1.22854
2.67,0.877919,1.91709,5.15169,4.39798,5.68044,1.22929
2.68,0.877719,1.92013,5.14291,4.38979,5.67097,1.23001
2.69,0.877512,1.92311,5.13414,4.38158,5.66152,1.23073
2.7,0.87736,1.926,5.12537,4.37333,5.65209,1.23145
2.71,0.877197,1.92888,5.1166,4.36508,5.64266,1.23215
2.72,0.87706,1.93184,5.10784,4.35687,5.63323,1.23287
2.73,0.876847,1.93474,5.09907,4.34866,5.62379,1.23353
2.74,0.876693,1.93773,5.09031,4.34045,5.61436,1.23425
2.75,0.876541,1.9406,5.08154,4.33223,5.60492,1.23489
2.76,0.876374,1.94357,5.07278,4.32402,5.5955,1.2356
2.77,0.876218,1.94634,5.06403,4.31578,5.58608,1.23622
2.78,0.876134,1.94921,5.05527,4.30751,5.57666,1.23693
2.79,0.87604,1.95203,5.04651,4.29926,5.56725,1.23758
2.8,0.875897,1.9549,5.03776,4.29102,5.55783,1.23824
2.81,0.875833,1.95778,5.029,4.28277,5.54841,1.23892
2.82,0.875659,1.96059,5.02025,4.27453,5.53899,1.23955
2.83,0.875455,1.96352,5.0115,4.2663,5.52959,1.24024
2.84,0.875387,1.96626,5.00274,4.25807,5.5202,1.24083
2.85,0.875277,1.96911,4.994,4.24979,5.5108,1.24154
2.86,0.875116,1.97174,4.98525,4.24149,5.50144,1.24215
2.87,0.875004,1.97456,4.9765,4.23324,5.49207,1.24282
2.88,0.874851,1.97729,4.96776,4.22499,5.4827,1.24344
2.89,0.874797,1.98006,4.95901,4.21675,5.47335,1.24408
2.9,0.87462,1.98279,4.95027,4.2085,5.46401,1.2447
2.91,0.874463,1.9855,4.94153,4.20027,5.45467,1.2453
2.92,0.874328,1.9882,4.93279,4.192,5.44533,1.24593
2.93,0.874261,1.99076,4.92405,4.18371,5.43599,1.2465
2.94,0.874191,1.99345,4.91531,4.17543,5.42666,1.24713
2.95,0.87405,1.99603,4.90657,4.16717,5.41731,1.24765
2.96,0.873903,1.99873,4.89784,4.1589,5.40799,1.24829
2.97,0.87379,2.00127,4.8891,4.15064,5.39867,1.24882
2.98,0.873641,2.00393,4.88037,4.14238,5.38936,1.24942
2.99,0.873599,2.0065,4.87164,4.13414,5.38004,1.24996
3,0.873487,2.00903,4.86291,4.12584,5.37073,1.25051
3.01,0.873352,2.01153,4.85417,4.11751,5.36142,1.25107
3.02,0.873199,2.01404,4.84545,4.10923,5.35211,1.2516
3.03,0.873158,2.01666,4.83672,4.10096,5.34281,1.2522
3.04,0.873071,2.01912,4.82799,4.09269,5.33353,1.25269
3.05,0.872943,2.02176,4.81927,4.08442,5.32424,1.2533
3.06,0.872861,2.02427,4.81054,4.07616,5.31495,1.25382
3.07,0.872862,2.02682,4.80182,4.06788,5.30567,1.25439
3.08,0.872766,2.02929,4.79309,4.05955,5.29638,1.25494
3.09,0.872641,2.03172,4.78437,4.05124,5.2871,1.25547
3.1,0.872524,2.03427,4.77565,4.04294,5.27783,1.25605
3.11,0.872363,2.03664,4.76692,4.03465,5.26857,1.25653
3.12,0.87226,2.03922,4.75821,4.02635,5.25931,1.25713
3.13,0.872103,2.04165,4.74949,4.01807,5.25005,1.25764
3.14,0.871995,2.0442,4.74077,4.0098,5.2408,1.25821
3.15,0.871845,2.0466,4.73206,4.00148,5.23154,1.25872
3.16,0.871768,2.04894,4.72334,3.99313,5.22231,1.25925
3.17,0.871675,2.05136,4.71463,3.98483,5.21308,1.25979
3.18,0.871551,2.05371,4.70592,3.97654,5.20386,1.26028
3.19,0.871456,2.05617,4.69721,3.96826,5.19464,1.26083
3.2,0.871289,2.05847,4.6885,3.95997,5.18542,1.26127
3.21,0.871174,2.06098,4.67979,3.9517,5.1762,1.26184
3.22,0.871054,2.06326,4.67108,3.9434,5.16698,1.26228
3.23,0.870937,2.06562,4.66237,3.93506,5.15777,1.26282
3.24,0.870784,2.06785,4.65367,3.92674,5.14857,1.26329
3.25,0.870669,2.07019,4.64497,3.91844,5.13937,1.26378
3.26,0.870592,2.07247,4.63626,3.91013,5.13018,1.26426
3.27,0.870465,2.07474,4.62756,3.90183,5.12098,1.26472
3.28,0.87037,2.07706,4.61886,3.89353,5.1118,1.26521
3.29,0.870281,2.07931,4.61017,3.88525,5.1026,1.26563
3.3,0.870202,2.08158,4.60146,3.87692,5.09342,1.26612
3.31,0.870093,2.0836,4.59277,3.86855,5.08425,1.26652
3.32,0.869985,2.08584,4.58407,3.86022,5.07508,1.26701
3.33,0.869891,2.08802,4.57537,3.85191,5.06592,1.26743
3.34,0.869772,2.09021,4.56668,3.84361,5.05675,1.26787
3.35,0.869678,2.09248,4.55799,3.83531,5.04759,1.26834
3.36,0.869607,2.09459,4.5493,3.82702,5.03844,1.26871
3.37,0.869519,2.09687,4.5406,3.8187,5.02929,1.26923
3.38,0.869422,2.0989,4.53191,3.81035,5.02016,1.26963
3.39,0.869355,2.10106,4.52322,3.802,5.01102,1.2701
3.4,0.86929,2.10318,4.51453,3.79368,5.00189,1.27054
3.41,0.869169,2.10526,4.50585,3.78535,4.99276,1.27096
3.42,0.869086,2.10744,4.49716,3.77702,4.98363,1.27143
3.43,0.869084,2.10945,4.48847,3.7687,4.97451,1.2718
3.44,0.869032,2.11169,4.47979,3.76039,4.9654,1.2723
3.45,0.868954,2.11364,4.4711,3.75204,4.95629,1.27268
3.46,0.868885,2.11564,4.46241,3.74364,4.94719,1.27314
3.47,0.868725,2.11763,4.45373,3.73529,4.93809,1.27355
3.48,0.868619,2.11966,4.44505,3.72695,4.929,1.27396
3.49,0.86858,2.12176,4.43636,3.71862,4.91989,1.2744
3.5,0.868474,2.12372,4.42768,3.7103,4.9108,1.27477
3.51,0.868384,2.12586,4.419,3.70198,4.90171,1.27523
3.52,0.868307,2.12773,4.41032,3.69364,4.89264,1.27556
3.53,0.868386,2.12977,4.40164,3.68528,4.88356,1.27603
3.54,0.86829,2.13164,4.39296,3.67692,4.87448,1.27639
3.55,0.868184,2.13365,4.38428,3.66858,4.86541,1.27681
3.56,0.868138,2.13558,4.37561,3.66024,4.85634,1.27718
3.57,0.868005,2.1375,4.36693,3.6519,4.84727,1.27755
3.58,0.86792,2.13947,4.35826,3.64357,4.83821,1.27796
3.59,0.867882,2.14134,4.34958,3.63525,4.82916,1.27828
3.6,0.867806,2.14328,4.34091,3.62689,4.8201,1.2787
3.61,0.867735,2.14494,4.33223,3.61848,4.81105,1.279
3.62,0.867729,2.14689,4.32356,3.61012,4.80201,1.27943
3.63,0.867586,2.1487,4.31489,3.60178,4.79295,1.27974
3.64,0.867467,2.15061,4.30621,3.59344,4.78391,1.28013
3.65,0.867395,2.15246,4.29754,3.5851,4.77487,1.28047
3.66,0.867367,2.15429,4.28887,3.57677,4.76584,1.2808
3.67,0.867324,2.15613,4.2802,3.56842,4.75682,1.28117
3.68,0.867254,2.15773,4.27153,3.56003,4.74779,1.28143
3.69,0.867098,2.1596,4.26287,3.55166,4.73877,1.28184
3.7,0.867159,2.16127,4.2542,3.5433,4.72974,1.28211
3.71,0.867072,2.16308,4.24553,3.53493,4.72072,1.28248
3.72,0.867147,2.16479,4.23687,3.52658,4.71171,1.28279
3.73,0.867103,2.1665,4.2282,3.51823,4.70271,1.2831
3.74,0.866994,2.16831,4.21953,3.50989,4.69371,1.28345
