time,velocity,ratio,centerX,Xmax,Xmin,Ymax
0,0,1,41,40,42,1
0.01,0.0199039,1.00005,40.9999,39.9999,41.9999,1.00001
0.02,0.0399764,1.00012,40.9996,39.9997,41.9995,1.00004
0.03,0.060751,1.00015,40.9991,39.9992,41.999,1.00005
0.04,0.0804997,1.0001,40.9984,39.9985,41.9983,1.00004
0.05,0.0987725,1.00005,40.9975,39.9975,41.9974,1.00001
0.06,0.116374,1.00002,40.9964,39.9964,41.9964,1
0.07,0.134362,1.00008,40.9952,39.9952,41.9951,1.00001
0.08,0.152954,1.0001,40.9937,39.9938,41.9936,1.00001
0.09,0.172642,1.00005,40.9921,39.9922,41.992,0.999971
0.1,0.199112,0.999921,40.9903,39.9902,41.9904,0.999992
0.11,0.247095,1.00006,40.988,39.9882,41.9883,1.0001
0.12,0.31107,1.00056,40.9853,39.9859,41.9852,1.00025
0.13,0.352525,1.00088,40.9819,39.9825,41.9813,1.0003
0.14,0.367138,1.00022,40.9783,39.9785,41.9781,1.00001
0.15,0.388108,0.999343,40.9745,39.9742,41.9751,0.999773
0.16,0.431965,0.999324,40.9704,39.9702,41.9713,0.99986
0.17,0.475123,1.0004,40.9659,39.9663,41.9659,1.00021
0.18,0.494156,1.00114,40.961,39.9617,41.9599,1.00024
0.19,0.527487,1.00042,40.9559,39.9563,41.9561,1.0003
0.2,0.566099,1.00004,40.9504,39.9509,41.9505,0.99983
0.21,0.573824,0.999349,40.9447,39.9439,41.9452,0.999975
0.22,0.609738,1.00002,40.9388,39.9387,41.9386,0.999983
0.23,0.643455,1.001,40.9325,39.9337,41.9325,1.0004
0.24,0.666546,1.00123,40.926,39.9269,41.9247,1.00011
0.25,0.714416,0.999729,40.9191,39.9184,41.9197,1.00036
0.26,0.734616,1.0002,40.9119,39.913,41.9118,0.999617
0.27,0.774299,0.999125,40.9043,39.9028,41.9052,1.00029
0.28,0.786858,1.00121,40.8965,39.8976,41.8948,0.999782
0.29,0.81375,1.00042,40.8885,39.8887,41.8893,1.00075
0.3,0.8102,1.00147,40.8804,39.8816,41.8785,0.999907
0.31,0.845274,0.999389,40.8722,39.8707,41.8728,1.00045
0.32,0.85725,1.00032,40.8637,39.8651,41.8635,0.999493
0.33,0.883902,0.999249,40.855,39.8536,41.8558,1.00035
0.34,0.9083,1.00085,40.846,39.8466,41.8446,0.999841
0.35,0.912973,1.00068,40.8369,39.8374,41.8368,1.00039
0.36,0.951537,1.0008,40.8276,39.8285,41.8273,1.00018
0.37,0.974102,1.00023,40.818,39.8177,41.8175,1.00015
0.38,1.00417,0.999869,40.8081,39.8082,41.8086,1.00009
0.39,1.02774,1.00017,40.7979,39.7987,41.798,0.999831
0.4,1.04496,1.00024,40.7875,39.7867,41.7867,1.00021
0.41,1.06909,1.00098,40.7769,39.7786,41.7769,1.00011
0.42,1.08797,1.00015,40.7662,39.7661,41.7668,1.0005
0.43,1.09946,1.00089,40.7553,39.7555,41.7531,0.999732
0.44,1.11942,0.999657,40.7442,39.7441,41.7452,1.00021
0.45,1.14458,1.00046,40.7328,39.7344,41.733,0.999756
0.46,1.16032,0.999889,40.7213,39.7192,41.7206,1.00057
0.47,1.17993,1.00169,40.7096,39.7121,41.7083,0.999802
0.48,1.20634,0.999983,40.6977,39.6978,41.6991,1.00063
0.49,1.23078,1.00086,40.6855,39.6856,41.6834,0.999783
0.5,1.24677,0.99964,40.6731,39.6727,41.6743,1.00044
0.51,1.26802,1.00091,40.6606,39.6621,41.6598,0.999727
0.52,1.2849,1.00019,40.6478,39.6468,41.6474,1.0005
0.53,1.30116,1.0011,40.6348,39.6362,41.6341,1.00004
0.54,1.31906,1.00013,40.6217,39.622,41.6227,1.00047
0.55,1.34064,1.00085,40.6085,39.6088,41.6067,0.999791
0.56,1.35837,0.999935,40.595,39.5953,41.5957,1.00014
0.57,1.37929,1.00037,40.5813,39.5817,41.5813,1.00016
0.58,1.3969,1.00104,40.5674,39.5678,41.5665,1.00035
0.59,1.41222,1.0012,40.5534,39.5544,41.5524,1.00023
0.6,1.42867,1.00066,40.5391,39.54,41.5389,1.00012
0.61,1.45004,0.999844,40.5247,39.5242,41.525,1.00028
0.62,1.4693,1.00042,40.5101,39.5108,41.5098,0.999898
0.63,1.4894,1.00033,40.4953,39.4952,41.4952,1.00034
0.64,1.50926,1.00149,40.4803,39.4821,41.4793,1.00008
0.65,1.52793,1.00021,40.4652,39.4645,41.4656,1.00073
0.66,1.54742,1.00121,40.4498,39.4509,41.4483,0.999875
0.67,1.56895,1.00009,40.4342,39.4342,41.4348,1.00039
0.68,1.58729,1.00085,40.4184,39.4194,41.4174,0.999832
0.69,1.60247,0.9999,40.4025,39.4013,41.4028,1.00069
0.7,1.61928,1.00172,40.3864,39.3888,41.3853,0.999973
0.71,1.63825,1.00053,40.3701,39.3699,41.37,1.00061
0.72,1.65759,1.00105,40.3536,39.3544,41.3522,0.999943
0.73,1.67589,0.999827,40.3369,39.337,41.3383,1.00049
0.74,1.69674,1.00112,40.3201,39.3212,41.3187,0.999883
0.75,1.71291,1.00084,40.303,39.3029,41.3022,1.00048
0.76,1.7314,1.00131,40.2858,39.2876,41.2856,1.00028
0.77,1.74711,1.00074,40.2684,39.2685,41.2679,1.00045
0.78,1.76315,1.00099,40.2508,39.2511,41.2494,1.00011
0.79,1.77712,1.00082,40.2331,39.2346,41.2333,1.0002
0.8,1.79081,1.00069,40.2153,39.2153,41.2147,1.00039
0.81,1.80723,1.00122,40.1973,39.1976,41.1958,1.00032
0.82,1.82686,1.00092,40.1792,39.1802,41.1792,1.00041
0.83,1.84576,1.00126,40.1608,39.1618,41.1594,1.00006
0.84,1.863,1.00036,40.1422,39.1415,41.1417,1.00048
0.85,1.8787,1.00133,40.1235,39.1253,41.1228,1.0001
0.86,1.89184,1.00085,40.1047,39.1047,41.1042,1.00062
0.87,1.90515,1.00177,40.0857,39.0869,41.0836,1.00014
0.88,1.92032,1.00031,40.0666,39.0667,41.0674,1.00065
0.89,1.93801,1.00135,40.0473,39.0487,41.0458,0.99991
0.9,1.95439,1.00053,40.0278,39.0276,41.0276,1.00049
0.91,1.97128,1.00132,40.0082,39.0099,41.0076,1.00015
0.92,1.98758,1.0008,39.9884,38.9883,40.9882,1.00076
0.93,2.00543,1.00207,39.9684,38.9704,40.9665,1.00011
0.94,2.02134,1.00059,39.9483,38.9488,40.9486,1.0005
0.95,2.04104,1.00072,39.928,38.9287,40.9277,1.00021
0.96,2.0596,1.00072,39.9075,38.9077,40.9073,1.00048
0.97,2.07303,1.00186,39.8868,38.8887,40.8853,1.00019
0.98,2.08474,1.00141,39.866,38.8669,40.8653,1.00061
0.99,2.10076,1.00117,39.8451,38.846,40.8447,1.00053
1,2.1121,1.00099,39.824,38.8247,40.8232,1.00023
1.01,2.1272,1.00103,39.8028,38.8036,40.802,1.00024
1.02,2.14459,1.00122,39.7815,38.7828,40.7811,1.00035
1.03,2.16072,1.00112,39.76,38.76,40.7591,1.00069
1.04,2.17765,1.00209,39.7383,38.7399,40.7364,1.00036
1.05,2.19594,1.00132,39.7164,38.7177,40.7162,1.0006
1.06,2.21255,1.00114,39.6944,38.6949,40.6929,1.00017
1.07,2.22751,1.00042,39.6722,38.6717,40.6721,1.00061
1.08,2.24114,1.00187,39.6498,38.6522,40.6486,1.0001
1.09,2.25611,1.00135,39.6273,38.6273,40.6262,1.00079
1.1,2.27275,1.00214,39.6047,38.6064,40.6029,1.00039
1.11,2.29075,1.001,39.5819,38.5826,40.5822,1.00077
1.12,2.30828,1.00159,39.5589,38.5598,40.5567,1.00005
1.13,2.32236,1.00083,39.5357,38.536,40.5355,1.00055
1.14,2.33767,1.00153,39.5124,38.5143,40.5119,1.00033
1.15,2.35186,1.0016,39.489,38.4892,40.4876,1.0008
1.16,2.36752,1.00231,39.4654,38.4673,40.4635,1.0004
1.17,2.38317,1.00134,39.4416,38.4431,40.4417,1.00063
1.18,2.39834,1.00109,39.4177,38.4179,40.4164,1.00034
1.19,2.41411,1.00124,39.3937,38.3946,40.393,1.00046
1.2,2.42984,1.00168,39.3695,38.3711,40.3686,1.00043
1.21,2.44501,1.00208,39.3451,38.3463,40.3434,1.00065
1.22,2.46022,1.00166,39.3206,38.3215,40.3196,1.00072
1.23,2.47879,1.00173,39.2959,38.2976,40.295,1.00044
1.24,2.49511,1.00133,39.271,38.2714,40.2698,1.00049
1.25,2.51158,1.00166,39.246,38.2474,40.2448,1.00036
1.26,2.52774,1.00126,39.2208,38.2213,40.2205,1.00083
1.27,2.5422,1.00257,39.1954,38.1974,40.1932,1.00048
1.28,2.55775,1.00184,39.1699,38.1708,40.1688,1.00081
1.29,2.57394,1.00187,39.1443,38.146,40.1429,1.00036
1.3,2.58855,1.00088,39.1184,38.1184,40.118,1.00068
1.31,2.60379,1.00208,39.0925,38.0944,40.0908,1.0003
1.32,2.61655,1.00174,39.0664,38.067,40.0652,1.00084
1.33,2.63068,1.00251,39.0401,38.0423,40.0384,1.00053
1.34,2.64592,1.00153,39.0138,38.0143,40.0131,1.00091
1.35,2.66149,1.00215,38.9872,37.9888,39.9852,1.00035
1.36,2.67536,1.00135,38.9605,37.9615,39.96,1.00061
1.37,2.68919,1.00178,38.9337,37.9352,39.9326,1.0005
1.38,2.70197,1.00201,38.9068,37.9074,39.9051,1.00086
1.39,2.71574,1.00258,38.8797,37.8821,39.8782,1.00067
1.4,2.73045,1.00187,38.8524,37.8538,39.8514,1.00067
1.41,2.74619,1.00173,38.8251,37.8258,39.8235,1.00057
1.42,2.76082,1.00188,38.7975,37.7992,39.7967,1.00062
1.43,2.77334,1.00196,38.7699,37.7714,39.7688,1.00067
1.44,2.78482,1.00237,38.7421,37.7432,39.7397,1.00066
1.45,2.79868,1.0022,38.7142,37.716,39.7135,1.00094
1.46,2.81565,1.00236,38.6861,37.688,39.6845,1.00061
1.47,2.83212,1.00158,38.6578,37.6582,39.6564,1.00068
1.48,2.84648,1.00211,38.6295,37.6316,39.6283,1.00048
1.49,2.86094,1.00207,38.6009,37.6023,39.6001,1.00097
1.5,2.87654,1.00295,38.5722,37.5738,39.5693,1.00066
1.51,2.89112,1.00195,38.5434,37.5449,39.5429,1.00092
1.52,2.90865,1.00234,38.5144,37.5164,39.5128,1.00049
1.53,2.92335,1.00172,38.4852,37.4857,39.484,1.00087
1.54,2.93557,1.00243,38.4559,37.4581,39.4543,1.00053
1.55,2.94847,1.00215,38.4265,37.4279,39.4256,1.00097
1.56,2.96278,1.00305,38.397,37.3989,39.3944,1.00077
1.57,2.97867,1.00208,38.3673,37.3688,39.3665,1.00097
1.58,2.99661,1.0022,38.3374,37.3391,39.3357,1.0005
1.59,3.01143,1.00194,38.3073,37.3084,39.3061,1.00075
1.6,3.02528,1.0026,38.2772,37.2791,39.2755,1.00078
1.61,3.03717,1.00266,38.2469,37.2485,39.2452,1.001
1.62,3.05243,1.00296,38.2164,37.2184,39.2143,1.00087
1.63,3.06863,1.00241,38.1858,37.1877,39.1845,1.00081
1.64,3.08408,1.00209,38.155,37.1563,39.1537,1.00079
1.65,3.09824,1.00229,38.1241,37.1258,39.1227,1.0007
1.66,3.11154,1.0025,38.0931,37.0948,39.0916,1.00092
1.67,3.12521,1.00318,38.0619,37.0642,39.0597,1.0009
1.68,3.13939,1.00276,38.0306,37.0326,39.0293,1.00112
1.69,3.15429,1.00248,37.9991,37.0009,38.9973,1.00069
1.7,3.16942,1.00202,37.9675,36.9687,38.9664,1.00087
1.71,3.18335,1.00284,37.9357,36.9384,38.934,1.00068
1.72,3.19574,1.00255,37.9038,36.9053,38.9025,1.00115
1.73,3.20695,1.0033,37.8718,36.874,38.8692,1.00086
1.74,3.22067,1.00281,37.8397,36.8421,38.8388,1.00112
1.75,3.23457,1.00278,37.8074,36.8092,38.8051,1.00068
1.76,3.24808,1.00203,37.775,36.7761,38.7739,1.00093
1.77,3.26162,1.00288,37.7425,36.7451,38.7408,1.00071
1.78,3.27417,1.00297,37.7098,36.7116,38.708,1.00114
1.79,3.28861,1.00345,37.677,36.679,38.6741,1.00099
1.8,3.30379,1.00265,37.644,36.6464,38.6433,1.00108
1.81,3.31937,1.00265,37.6109,36.6123,38.6086,1.0008
1.82,3.33326,1.00257,37.5776,36.5793,38.576,1.00091
1.83,3.34529,1.00285,37.5442,36.5466,38.5428,1.00096
1.84,3.35708,1.0032,37.5107,36.5128,38.5086,1.00109
1.85,3.37094,1.0034,37.4771,36.4791,38.4745,1.0011
1.86,3.38619,1.00303,37.4433,36.4462,38.442,1.00093
1.87,3.40158,1.00244,37.4094,36.4105,38.4076,1.00098
1.88,3.41483,1.00285,37.3753,36.3773,38.3733,1.00086
1.89,3.42632,1.00298,37.3411,36.3432,38.3396,1.00116
1.9,3.43954,1.0037,37.3068,36.3094,38.304,1.00101
1.91,3.45391,1.00316,37.2723,36.2742,38.2703,1.00122
1.92,3.46921,1.00308,37.2377,36.2403,38.2359,1.0009
1.93,3.48342,1.00273,37.2029,36.2043,38.2011,1.00111
1.94,3.49653,1.00322,37.168,36.1704,38.1657,1.00087
1.95,3.50854,1.0031,37.133,36.1351,38.1313,1.00122
1.96,3.52129,1.00386,37.0978,36.1006,38.095,1.00108
1.97,3.53523,1.0033,37.0626,36.0647,38.0607,1.00128
1.98,3.54966,1.00301,37.0271,36.0292,38.0251,1.00092
1.99,3.56244,1.00299,36.9916,35.9935,37.9897,1.00107
2,3.57408,1.00353,36.9559,35.9586,37.9535,1.00099
2.01,3.5838,1.00332,36.9201,35.9221,37.9181,1.0013
2.02,3.59489,1.00361,36.8842,35.8866,37.8817,1.00117
2.03,3.60817,1.00348,36.8482,35.851,37.8463,1.00116
2.04,3.62129,1.0032,36.8121,35.814,37.8096,1.00101
2.05,3.63292,1.00314,36.7758,35.7782,37.774,1.00108
2.06,3.64386,1.00341,36.7394,35.7419,37.7375,1.0012
2.07,3.65505,1.00386,36.7029,35.7053,37.7001,1.00125
2.08,3.66767,1.00374,36.6663,35.6689,37.664,1.00129
2.09,3.68269,1.00356,36.6296,35.6327,37.6277,1.00106
2.1,3.69668,1.00296,36.5927,35.5939,37.5905,1.00121
2.11,3.70848,1.00366,36.5556,35.5586,37.5534,1.00104
2.12,3.71953,1.00361,36.5185,35.5211,37.5166,1.00134
2.13,3.73035,1.0041,36.4813,35.4838,37.4781,1.0012
2.14,3.74297,1.00355,36.4439,35.4463,37.442,1.00141
2.15,3.75787,1.00369,36.4064,35.4095,37.4043,1.00107
2.16,3.771,1.00319,36.3687,35.3702,37.3662,1.00123
2.17,3.78306,1.00388,36.331,35.3342,37.3286,1.00108
2.18,3.79333,1.00373,36.2931,35.2957,37.2912,1.00148
2.19,3.80523,1.00424,36.2551,35.2577,37.2518,1.00127
2.2,3.81874,1.00373,36.217,35.2196,37.2149,1.00137
2.21,3.83249,1.00362,36.1787,35.1817,37.1767,1.0011
2.22,3.84512,1.0035,36.1403,35.1422,37.1378,1.0013
2.23,3.8552,1.00387,36.1018,35.1047,37.0994,1.00123
2.24,3.86609,1.00408,36.0632,35.0662,37.0609,1.00143
2.25,3.87763,1.0043,36.0245,35.0272,37.0213,1.00137
2.26,3.89131,1.00394,35.9857,34.9886,36.9834,1.00134
2.27,3.90416,1.00349,35.9467,34.9491,36.9446,1.00123
2.28,3.91685,1.00394,35.9076,34.9103,36.9049,1.00123
2.29,3.92808,1.00398,35.8684,34.8711,36.866,1.00141
2.3,3.9398,1.00437,35.829,34.8323,36.8264,1.00141
2.31,3.95201,1.0042,35.7896,34.7922,36.7868,1.00149
2.32,3.966,1.00416,35.75,34.7532,36.7475,1.00127
2.33,3.97844,1.00352,35.7103,34.7123,36.708,1.00137
2.34,3.99051,1.00422,35.6704,34.6737,36.6677,1.00123
2.35,4.00178,1.00399,35.6305,34.633,36.6281,1.00152
2.36,4.01428,1.00469,35.5904,34.5937,36.5872,1.00141
2.37,4.02759,1.00429,35.5502,34.5531,36.5477,1.00158
2.38,4.04225,1.00425,35.5098,34.5131,36.5071,1.00126
2.39,4.05574,1.00366,35.4693,34.4714,36.4669,1.00144
2.4,4.06839,1.00447,35.4287,34.4323,36.426,1.0013
2.41,4.07998,1.00428,35.388,34.3907,36.3854,1.00161
2.42,4.09139,1.00476,35.3471,34.3502,36.3437,1.00149
2.43,4.10344,1.00444,35.3062,34.3095,36.3037,1.00156
2.44,4.11669,1.00428,35.2651,34.2681,36.2623,1.00137
2.45,4.12882,1.00396,35.2238,34.2261,36.221,1.00142
2.46,4.14003,1.00448,35.1825,34.1861,36.1801,1.00145
2.47,4.15124,1.0046,35.141,34.144,36.138,1.00159
2.48,4.1637,1.00477,35.0995,34.1025,36.0961,1.0016
2.49,4.17685,1.00455,35.0578,34.0614,36.0553,1.00152
2.5,4.18985,1.00428,35.0159,34.0188,36.0133,1.0015
2.51,4.20171,1.00444,34.974,33.9767,35.9707,1.00141
2.52,4.21272,1.00451,34.9319,33.9354,35.9297,1.00161
2.53,4.22437,1.00484,34.8897,33.893,35.8865,1.00156
2.54,4.23691,1.00478,34.8474,33.8504,35.8443,1.00171
2.55,4.24989,1.0048,34.805,33.8088,35.8022,1.00147
2.56,4.26218,1.00438,34.7624,33.7653,35.7598,1.00162
2.57,4.27411,1.00468,34.7198,33.7227,35.7163,1.00144
2.58,4.28492,1.00459,34.677,33.6804,35.6747,1.0017
2.59,4.29605,1.00516,34.6341,33.6376,35.6305,1.00158
2.6,4.30798,1.00493,34.591,33.5943,35.588,1.00177
2.61,4.32077,1.00472,34.5479,33.5514,35.545,1.00151
2.62,4.33315,1.00454,34.5046,33.5078,35.502,1.00164
2.63,4.34418,1.00503,34.4612,33.4646,35.4577,1.00154
2.64,4.35432,1.00488,34.4178,33.4212,35.415,1.00176
2.65,4.36497,1.00507,34.3742,33.3775,35.3707,1.00167
2.66,4.37667,1.00501,34.3305,33.3341,35.3275,1.00173
2.67,4.38916,1.00493,34.2866,33.29,35.2834,1.00163
2.68,4.40072,1.00493,34.2427,33.2461,35.2396,1.00165
2.69,4.41164,1.00501,34.1986,33.202,35.1954,1.00168
2.7,4.42225,1.00497,34.1545,33.1579,35.1514,1.00173
2.71,4.43351,1.00528,34.1102,33.1137,35.1068,1.00183
2.72,4.44693,1.0055,34.0658,33.07,35.0625,1.00175
2.73,4.46028,1.0049,34.0212,33.0242,35.0179,1.00175
2.74,4.47222,1.00494,33.9766,32.9801,34.9734,1.00159
2.75,4.48314,1.00503,33.9318,32.9354,34.929,1.0018
2.76,4.49406,1.00553,33.8869,32.8907,34.8833,1.00177
2.77,4.50585,1.00538,33.8419,32.8454,34.8385,1.00192
2.78,4.519,1.00532,33.7968,32.801,34.7937,1.00167
2.79,4.53128,1.00482,33.7516,32.7545,34.7484,1.00178
2.8,4.5425,1.0054,33.7062,32.7101,34.7027,1.0017
2.81,4.55194,1.00553,33.6607,32.6647,34.6576,1.00195
2.82,4.56258,1.00575,33.6151,32.6188,34.6111,1.00183
2.83,4.57475,1.00534,33.5695,32.573,34.5662,1.00192
2.84,4.58817,1.00532,33.5237,32.5278,34.5206,1.0017
2.85,4.60064,1.00517,33.4777,32.481,34.4743,1.0018
2.86,4.61151,1.00551,33.4316,32.4355,34.428,1.00177
2.87,4.62085,1.00554,33.3855,32.3896,34.3825,1.00194
2.88,4.63139,1.00577,33.3392,32.3429,34.3353,1.00193
2.89,4.64386,1.00568,33.2929,32.2969,34.2894,1.00193
2.9,4.65696,1.00538,33.2464,32.2503,34.2433,1.00184
2.91,4.66913,1.00535,33.1997,32.2032,34.1962,1.0018
2.92,4.67928,1.00546,33.153,32.1567,34.1496,1.00191
2.93,4.6892,1.00583,33.1061,32.1105,34.1028,1.00196
2.94,4.70064,1.00599,33.0592,32.0631,34.0553,1.00208
2.95,4.71408,1.00589,33.0121,32.0164,34.0085,1.00192
2.96,4.72672,1.00523,32.9649,31.9686,33.962,1.00192
2.97,4.73829,1.0056,32.9176,31.9215,33.914,1.00179
2.98,4.74809,1.00573,32.8702,31.8741,33.8668,1.00204
2.99,4.75813,1.00613,32.8227,31.8271,33.8189,1.00199
3,4.76922,1.00604,32.775,31.7791,33.7713,1.00212
3.01,4.78166,1.00594,32.7273,31.7317,33.7236,1.00189
3.02,4.79349,1.00545,32.6794,31.6831,33.6762,1.00198
3.03,4.80398,1.00597,32.6314,31.6357,33.6276,1.00188
3.04,4.81292,1.00603,32.5833,31.5875,33.5797,1.0021
3.05,4.82186,1.00632,32.5351,31.5395,33.531,1.00207
3.06,4.83221,1.00631,32.4869,31.4913,33.4831,1.00215
3.07,4.84286,1.00611,32.4385,31.4428,33.4346,1.00198
3.08,4.85192,1.00574,32.39,31.3937,33.3862,1.002
3.09,4.85928,1.00601,32.3415,31.3456,33.3376,1.00199
3.1,4.86493,1.00613,32.2929,31.2971,33.2891,1.00212
3.11,4.87169,1.00621,32.2442,31.2481,33.24,1.00216
3.12,4.88033,1.00631,32.1954,31.2001,33.1917,1.00209
3.13,4.88936,1.0059,32.1466,31.1507,33.143,1.00205
3.14,4.89796,1.00587,32.0976,31.1015,33.0937,1.00197
3.15,4.90516,1.00606,32.0486,31.0531,33.0452,1.00212
3.16,4.91239,1.00658,31.9995,31.0044,32.9956,1.00214
3.17,4.92179,1.00647,31.9504,30.9544,32.9461,1.00226
3.18,4.93315,1.00642,31.9011,30.9059,32.8972,1.00207
3.19,4.94506,1.00588,31.8517,30.8558,32.8483,1.00211
3.2,4.95696,1.00628,31.8022,30.8063,32.7978,1.002
3.21,4.96652,1.00629,31.7526,30.7571,32.749,1.00223
3.22,4.97588,1.0067,31.7029,30.7077,32.6987,1.00218
3.23,4.98663,1.00651,31.6531,30.6572,32.6488,1.00231
3.24,4.99805,1.00646,31.6032,30.6079,32.5992,1.00209
3.25,5.00883,1.00609,31.5531,30.5573,32.5495,1.00216
3.26,5.01904,1.00647,31.503,30.5073,32.4986,1.00209
3.27,5.02784,1.00647,31.4528,30.4574,32.449,1.00228
3.28,5.03752,1.00679,31.4024,30.4072,32.3982,1.00226
3.29,5.04851,1.00669,31.352,30.3565,32.3477,1.00229
3.3,5.06059,1.00652,31.3015,30.3061,32.2975,1.00218
3.31,5.07088,1.00633,31.2508,30.2552,32.247,1.00218
3.32,5.08051,1.00665,31.2,30.2045,32.1957,1.00222
3.33,5.08926,1.00672,31.1492,30.1539,32.1451,1.00229
3.34,5.09906,1.00692,31.0983,30.103,32.094,1.00237
3.35,5.11056,1.00694,31.0472,30.0521,32.0429,1.00229
3.36,5.12229,1.00648,30.9961,30.0005,31.9921,1.00227
3.37,5.13305,1.00652,30.9448,29.9493,31.9407,1.00217
3.38,5.14251,1.00688,30.8934,29.8982,31.8892,1.00234
3.39,5.15162,1.00705,30.8419,29.8468,31.8375,1.00234
3.4,5.16155,1.00692,30.7904,29.795,31.7861,1.00244
3.41,5.1733,1.00707,30.7387,29.7438,31.7343,1.00229
3.42,5.18533,1.00658,30.6869,29.6914,31.683,1.00233
3.43,5.19525,1.00681,30.635,29.6397,31.6306,1.00224
3.44,5.20372,1.00697,30.583,29.588,31.5789,1.00243
3.45,5.21266,1.0073,30.5309,29.5359,31.5262,1.0024
3.46,5.22238,1.00712,30.4788,29.4836,31.4744,1.0025
3.47,5.2338,1.00708,30.4265,29.4317,31.4222,1.00233
3.48,5.24484,1.00678,30.3741,29.3787,31.3699,1.00235
3.49,5.25414,1.00693,30.3216,29.3263,31.3171,1.00232
3.5,5.26232,1.00722,30.269,29.2743,31.2649,1.00248
3.51,5.27119,1.00748,30.2164,29.2214,31.2115,1.00248
3.52,5.2812,1.00724,30.1636,29.1686,31.1591,1.0025
3.53,5.29232,1.00712,30.1107,29.1159,31.1065,1.0024
3.54,5.30252,1.00698,30.0578,29.0626,31.0534,1.00235
3.55,5.31153,1.00709,30.0047,29.0094,31.0002,1.00245
3.56,5.31913,1.0075,29.9516,28.9571,30.9472,1.00249
3.57,5.32766,1.0075,29.8983,28.9033,30.8935,1.00257
3.58,5.33847,1.00745,29.845,28.8501,30.8403,1.0025
3.59,5.34911,1.00712,29.7916,28.7967,30.7874,1.00244
3.6,5.35922,1.00719,29.738,28.743,30.7335,1.00241
3.61,5.36798,1.00737,29.6844,28.6893,30.6797,1.00254
3.62,5.37688,1.00765,29.6307,28.6362,30.6261,1.00254
3.63,5.38623,1.00764,29.5769,28.582,30.5721,1.00267
3.64,5.39747,1.00761,29.5229,28.5283,30.5181,1.00248
3.65,5.4084,1.00718,29.4689,28.4739,30.4647,1.00253
3.66,5.41747,1.00738,29.4148,28.4199,30.4101,1.00242
3.67,5.4255,1.00761,29.3606,28.3658,30.3559,1.00262
3.68,5.43335,1.0078,29.3063,28.3117,30.3014,1.00259
3.69,5.44233,1.00782,29.2519,28.2573,30.2471,1.0027
3.7,5.4528,1.00772,29.1974,28.2029,30.1926,1.00253
3.71,5.46313,1.00735,29.1429,28.1479,30.1384,1.00257
3.72,5.47107,1.00759,29.0882,28.0935,30.0834,1.00252
3.73,5.4785,1.00784,29.0334,28.039,30.0287,1.00267
3.74,5.4861,1.00792,28.9786,27.984,29.9736,1.00269
3.75,5.49589,1.00795,28.9237,27.9293,29.9189,1.00269
3.76,5.50592,1.0077,28.8687,27.8741,29.864,1.00259
3.77,5.51601,1.00756,28.8136,27.8188,29.8089,1.00258
3.78,5.52356,1.00776,28.7584,27.7638,29.7536,1.00263
3.79,5.53128,1.00809,28.7031,27.7089,29.6982,1.00271
3.8,5.53946,1.008,28.6478,27.653,29.6427,1.00277
