time,velocity,ratio,centerX,Xmax,Xmin,Ymax
0,0,0.99998,1.1,0.1,2.1,0.99998
0.01,0.0156067,1.00003,1.09992,0.0999836,2.0999,0.999986
0.02,0.0308447,1.00017,1.09969,0.0999078,2.09959,1.00001
0.03,0.0451811,1.00036,1.09931,0.0997025,2.09914,1.00008
0.04,0.0589583,1.00054,1.09879,0.0993022,2.09855,1.00016
0.05,0.0727516,1.00074,1.09813,0.0987592,2.09773,1.00023
0.06,0.0860866,1.00089,1.09734,0.0980586,2.09681,1.00026
0.07,0.0992245,1.00093,1.09641,0.0971532,2.09584,1.00028
0.08,0.113134,1.00085,1.09535,0.096061,2.0949,1.00027
0.09,0.127818,1.00072,1.09415,0.0948103,2.09385,1.00024
0.1,0.14045,1.00056,1.0928,0.0934347,2.09266,1.00017
0.11,0.149909,1.00041,1.09135,0.0917324,2.09105,1.00007
0.12,0.159855,1.00018,1.0898,0.0898182,2.08962,1.00008
0.13,0.171465,1.00007,1.08815,0.0879992,2.0881,1.00012
0.14,0.185193,1.00018,1.08637,0.0863453,2.08602,1.00002
0.15,0.199737,1.00034,1.08444,0.0848442,2.08415,0.999986
0.16,0.215855,1.00038,1.08237,0.0830768,2.08247,1.00008
0.17,0.23412,1.00053,1.08012,0.0808784,2.0804,1.00029
0.18,0.252214,1.0009,1.07769,0.0785885,2.07769,1.00045
0.19,0.26209,1.00158,1.07512,0.0765201,2.07425,1.00044
0.2,0.270448,1.00195,1.07245,0.0739337,2.0707,1.00034
0.21,0.280631,1.0015,1.0697,0.0707441,2.06863,1.00044
0.22,0.294276,1.00104,1.06683,0.0675287,2.06657,1.00056
0.23,0.309899,1.00073,1.06381,0.0646323,2.06382,1.00032
0.24,0.322113,1.00075,1.06064,0.0617951,2.06049,1.0001
0.25,0.330728,1.00077,1.05738,0.0584725,2.05681,0.999936
0.26,0.342149,1.00039,1.05402,0.0546009,2.0538,0.999996
0.27,0.358376,1.00035,1.05052,0.050759,2.05051,1.00023
0.28,0.376591,1.00036,1.04685,0.0469894,2.04683,1.00028
0.29,0.387062,1.00118,1.04302,0.0438907,2.04203,1.00025
0.3,0.394913,1.00156,1.03911,0.0408948,2.03817,1.00019
0.31,0.402309,1.00151,1.03513,0.0371021,2.03486,1.00039
0.32,0.412322,1.00209,1.03106,0.0331474,2.03038,1.00071
0.33,0.420061,1.00185,1.0269,0.0284449,2.02613,1.00069
0.34,0.426888,1.00242,1.02266,0.0248236,2.02103,1.00052
0.35,0.433146,1.00261,1.01836,0.0212128,2.01679,1.0004
0.36,0.438166,1.0022,1.01401,0.0165608,2.01322,1.00052
0.37,0.443064,1.00196,1.0096,0.0120865,2.0092,1.00051
0.38,0.449165,1.00194,1.00514,0.00797183,2.00484,1.00037
0.39,0.455674,1.00282,1.00062,0.00488924,1.99982,1.00028
0.4,0.456227,1.00304,0.996061,2.0803e-07,1.99475,1.00041
0.41,0.455293,1.00544,0.991504,5.66484e-06,1.99033,1.00057
0.42,0.45037,1.00807,0.98697,-0,1.98576,1.00089
0.43,0.430602,1.01079,0.982545,-0,1.98094,1.00116
0.44,0.393989,1.01421,0.978413,5.41641e-06,1.97514,1.0016
0.45,0.348983,1.01725,0.974689,2.72051e-06,1.97118,1.00259
0.46,0.296607,1.02067,0.971457,-0,1.96644,1.00354
0.47,0.238377,1.02399,0.968776,-0,1.9611,1.00407
0.48,0.174179,1.02573,0.966707,-0,1.9582,1.00429
0.49,0.103788,1.02638,0.965312,6.58869e-06,1.95738,1.00451
0.5,0.0301831,1.02603,0.964636,5.82214e-06,1.95781,1.00438
0.51,-0.0628489,1.02505,0.964775,5.11068e-06,1.95882,1.00395
0.52,-0.166825,1.0241,0.965936,4.65088e-06,1.96054,1.00389
0.53,-0.200435,1.02308,0.967855,-0,1.96219,1.00373
0.54,-0.217758,1.01999,0.969916,-0,1.96469,1.00198
0.55,-0.273141,1.02017,0.972454,-0,1.96443,1.00203
0.56,-0.332563,1.01437,0.975539,-0,1.97492,1.00164
0.57,-0.371159,1.01255,0.979064,-0,1.9793,1.00207
0.58,-0.392593,1.01232,0.982945,0.000133302,1.97902,1.00163
0.59,-0.368019,1.00885,0.986725,-0,1.98276,1.00016
0.6,-0.347557,1.006,0.990305,-0,1.99062,1.00129
0.61,-0.349536,1.00497,0.993778,0.00112157,1.99187,1.00032
0.62,-0.365815,1.00027,0.997371,0.000138366,2.00111,1.00076
0.63,-0.332291,1.00001,1.00086,0.000726791,2.00092,1.00011
0.64,-0.303726,0.998621,1.00405,0.000478361,2.00168,0.99922
0.65,-0.284817,1.00211,1.00697,0.00884407,2.00284,0.999106
0.66,-0.258533,0.996872,1.0097,0.00710602,2.01291,0.999765
0.67,-0.232261,0.994012,1.01214,0.00642946,2.01839,0.999956
0.68,-0.209653,0.997157,1.01437,0.0116038,2.01583,0.999264
0.69,-0.167611,0.998262,1.01624,0.0155782,2.01675,0.998845
0.7,-0.138322,1.00095,1.01769,0.0210266,2.01778,0.999323
0.71,-0.093812,1.00007,1.01887,0.0203204,2.01983,0.999824
0.72,-0.0720598,0.998064,1.01966,0.0178664,2.02323,1.00074
0.73,-0.0806834,1.00248,1.02043,0.024962,2.02374,1.00187
0.74,-0.068252,1.0019,1.02115,0.022368,2.01838,0.999898
0.75,-0.0698613,1.00522,1.02185,0.0216172,2.01193,1.00035
0.76,-0.0603068,1.00634,1.02252,0.0281795,2.01907,1.00176
0.77,-0.0441174,0.999985,1.02305,0.0221598,2.02377,1.00079
0.78,-0.0345083,1.00304,1.02344,0.02608,2.02102,1.00051
0.79,-0.0239347,0.998333,1.02373,0.0258755,2.02618,0.998483
0.8,-0.0230038,0.997239,1.02397,0.025352,2.02854,0.998831
0.81,-0.00549795,0.999659,1.02413,0.0238771,2.02445,0.999948
0.82,0.0164872,0.995601,1.02407,0.0179022,2.02683,1.00004
