time,velocity,ratio,centerX,Xmax,Xmin,Ymax
0,0,1,2,1,3,1
0.01,0.0189116,1.00002,1.99991,0.999927,2.99989,1
0.02,0.0376649,1.00004,1.99962,0.999655,2.9996,1.00001
0.03,0.0561571,1.0001,1.99916,0.99924,2.99909,1.00003
0.04,0.0744116,1.00014,1.9985,0.998608,2.99842,1.00005
0.05,0.0924021,1.00019,1.99767,0.997804,2.99755,1.00006
0.06,0.110143,1.00024,1.99666,0.996823,2.9965,1.00007
0.07,0.127675,1.00027,1.99547,0.99566,2.99527,1.00008
0.08,0.145042,1.00027,1.99411,0.994303,2.9939,1.00007
0.09,0.162284,1.00027,1.99257,0.992783,2.99235,1.00005
0.1,0.179727,1.00025,1.99087,0.991071,2.99067,1.00005
0.11,0.197132,1.00018,1.98898,0.989147,2.9889,1.00006
0.12,0.214597,1.00013,1.98693,0.987042,2.98693,1.00008
0.13,0.23185,1.00015,1.98469,0.984807,2.9847,1.00009
0.14,0.248645,1.00018,1.98229,0.982439,2.98223,1.00008
0.15,0.265016,1.00028,1.97973,0.979971,2.97951,1.00005
0.16,0.281257,1.0003,1.977,0.977265,2.97673,1.00003
0.17,0.297296,1.00031,1.9741,0.974337,2.97385,1.00007
0.18,0.31363,1.00027,1.97105,0.971196,2.9709,1.00013
0.19,0.329901,1.00032,1.96783,0.968014,2.96773,1.00017
0.2,0.345116,1.00043,1.96446,0.964747,2.9642,1.00016
0.21,0.359927,1.00052,1.96093,0.96137,2.96054,1.00011
0.22,0.37543,1.00061,1.95726,0.9578,2.9568,1.00011
0.23,0.390813,1.00051,1.95343,0.953852,2.95316,1.00016
0.24,0.405636,1.00041,1.94945,0.949683,2.94932,1.00022
0.25,0.420201,1.00045,1.94532,0.945523,2.945,1.00019
0.26,0.434963,1.00056,1.94104,0.941425,2.94059,1.00014
0.27,0.449854,1.00058,1.93662,0.937181,2.93624,1.00011
0.28,0.464066,1.00056,1.93205,0.932512,2.93169,1.00014
0.29,0.47817,1.00049,1.92734,0.927633,2.92702,1.00019
0.3,0.492738,1.00044,1.92249,0.922758,2.92228,1.00021
0.31,0.506727,1.00057,1.91749,0.917978,2.91725,1.0002
0.32,0.520353,1.00073,1.91236,0.91293,2.91182,1.00017
0.33,0.534283,1.00074,1.90708,0.907603,2.90645,1.00016
0.34,0.547572,1.00069,1.90168,0.902172,2.90127,1.00024
0.35,0.560962,1.00079,1.89613,0.896695,2.8957,1.00029
0.36,0.573161,1.00078,1.89047,0.890987,2.89001,1.0003
0.37,0.586121,1.00086,1.88467,0.885275,2.88407,1.00026
0.38,0.599082,1.00103,1.87875,0.87953,2.87801,1.00027
0.39,0.612029,1.00095,1.87269,0.873474,2.87212,1.00027
0.4,0.624502,1.00087,1.86651,0.86715,2.86599,1.0003
0.41,0.63725,1.00099,1.8602,0.860815,2.85953,1.00035
0.42,0.649643,1.00088,1.85377,0.854373,2.85326,1.00032
0.43,0.661773,1.00101,1.84721,0.847981,2.84654,1.00028
0.44,0.67404,1.00108,1.84053,0.841367,2.83981,1.0003
0.45,0.685929,1.00107,1.83373,0.834519,2.83302,1.00032
0.46,0.697921,1.00105,1.82682,0.827533,2.82615,1.00036
0.47,0.709317,1.00108,1.81978,0.820556,2.81917,1.00038
0.48,0.721248,1.00125,1.81263,0.81353,2.81179,1.00038
0.49,0.732489,1.00118,1.80536,0.806194,2.80456,1.00037
0.5,0.744089,1.00137,1.79797,0.798992,2.79704,1.0004
0.51,0.75472,1.00128,1.79048,0.791416,2.78973,1.00044
0.52,0.765888,1.00136,1.78288,0.783853,2.78204,1.00045
0.53,0.776791,1.00135,1.77516,0.7761,2.77433,1.00046
0.54,0.787708,1.0015,1.76734,0.768424,2.76634,1.00045
0.55,0.798245,1.00143,1.75941,0.760535,2.75854,1.00043
0.56,0.809019,1.0015,1.75138,0.752462,2.75042,1.00047
0.57,0.819306,1.00147,1.74324,0.744316,2.74234,1.00048
0.58,0.829743,1.00149,1.73499,0.735995,2.73406,1.00051
0.59,0.839691,1.00153,1.72664,0.727802,2.72569,1.00047
0.6,0.849894,1.00165,1.7182,0.719385,2.71711,1.00051
0.61,0.859606,1.00167,1.70965,0.710912,2.70855,1.00049
0.62,0.869505,1.00168,1.701,0.70219,2.69994,1.00055
0.63,0.879071,1.00177,1.69226,0.693568,2.69118,1.00057
0.64,0.888483,1.00176,1.68342,0.684703,2.68235,1.00059
0.65,0.897888,1.00189,1.67449,0.675866,2.67326,1.00059
0.66,0.906824,1.0019,1.66547,0.666894,2.66428,1.00059
0.67,0.915305,1.00199,1.65636,0.657815,2.65509,1.00062
0.68,0.923925,1.00193,1.64716,0.648618,2.64603,1.00064
0.69,0.932737,1.00204,1.63788,0.639336,2.63656,1.00065
0.7,0.941272,1.00206,1.62851,0.630024,2.62727,1.00067
0.71,0.949419,1.00209,1.61906,0.620642,2.61773,1.00063
0.72,0.957643,1.00215,1.60952,0.611114,2.60819,1.00069
0.73,0.965652,1.00217,1.5999,0.601559,2.59859,1.00068
0.74,0.973737,1.00218,1.59021,0.591768,2.58883,1.00071
0.75,0.981855,1.00227,1.58043,0.58215,2.57908,1.00073
0.76,0.989418,1.00226,1.57058,0.572268,2.56917,1.00071
0.77,0.996915,1.0024,1.56064,0.562428,2.55914,1.00075
0.78,1.00424,1.00243,1.55064,0.552477,2.54915,1.00076
0.79,1.01138,1.00247,1.54056,0.542425,2.53904,1.00077
0.8,1.01812,1.00254,1.53041,0.53233,2.52893,1.00083
0.81,1.02492,1.00257,1.5202,0.522112,2.51864,1.00083
0.82,1.03143,1.00267,1.50992,0.511968,2.50827,1.00082
0.83,1.0379,1.00274,1.49957,0.501655,2.49789,1.00086
0.84,1.04409,1.00273,1.48916,0.491266,2.48755,1.00086
0.85,1.04998,1.00279,1.47869,0.480823,2.47702,1.00088
0.86,1.05582,1.00288,1.46816,0.470362,2.46645,1.00092
0.87,1.0615,1.00285,1.45758,0.459772,2.45591,1.00091
0.88,1.06686,1.00296,1.44693,0.449266,2.44515,1.0009
0.89,1.07223,1.00304,1.43624,0.438613,2.43444,1.00094
0.9,1.0768,1.00302,1.42549,0.427848,2.42373,1.00095
0.91,1.08147,1.00308,1.4147,0.417147,2.41292,1.00096
0.92,1.08604,1.0032,1.40386,0.40634,2.40196,1.001
0.93,1.09035,1.00322,1.39298,0.39553,2.39113,1.00101
0.94,1.09421,1.00333,1.38206,0.384746,2.38011,1.00101
0.95,1.09801,1.00344,1.3711,0.373819,2.36907,1.00105
0.96,1.10156,1.00345,1.3601,0.362877,2.35815,1.00108
0.97,1.10464,1.00353,1.34907,0.351915,2.34707,1.0011
0.98,1.10756,1.00363,1.33801,0.340938,2.3359,1.00111
0.99,1.11012,1.0037,1.32692,0.329932,2.32482,1.00114
1,1.11241,1.00379,1.31581,0.318926,2.31368,1.00115
1.01,1.11433,1.00385,1.30468,0.307882,2.30251,1.00115
1.02,1.11585,1.00394,1.29353,0.296776,2.29131,1.0012
1.03,1.11718,1.00401,1.28236,0.2857,2.28016,1.00123
1.04,1.11799,1.0041,1.27119,0.274645,2.26895,1.00124
1.05,1.11832,1.00422,1.26,0.26359,2.25766,1.00125
1.06,1.11866,1.00434,1.24882,0.252512,2.24645,1.0013
1.07,1.11835,1.00443,1.23763,0.241446,2.23526,1.00132
1.08,1.11766,1.00452,1.22645,0.230386,2.22404,1.00133
1.09,1.11672,1.00469,1.21528,0.219345,2.21276,1.00138
1.1,1.11519,1.0048,1.20412,0.208343,2.20161,1.00142
1.11,1.11284,1.00493,1.19298,0.197393,2.19043,1.00143
1.12,1.11002,1.0051,1.18187,0.186458,2.1792,1.00145
1.13,1.10689,1.00526,1.17078,0.175559,2.16811,1.00152
1.14,1.10294,1.00541,1.15974,0.164704,2.15704,1.00155
1.15,1.09831,1.00559,1.14873,0.153924,2.14593,1.00157
1.16,1.09306,1.00584,1.13777,0.143216,2.13485,1.00163
1.17,1.08673,1.00606,1.12687,0.132632,2.12392,1.00168
1.18,1.07968,1.0063,1.11604,0.122126,2.11302,1.00172
1.19,1.07175,1.00659,1.10528,0.111701,2.10213,1.00178
1.2,1.06279,1.0069,1.09461,0.101449,2.09142,1.00186
1.21,1.05259,1.00723,1.08404,0.0913308,2.08077,1.00191
1.22,1.04122,1.00767,1.07357,0.081424,2.07011,1.00197
1.23,1.02852,1.00817,1.06322,0.0717442,2.05964,1.00207
1.24,1.01397,1.00869,1.053,0.0622725,2.04931,1.00215
1.25,0.997916,1.00937,1.04294,0.0531477,2.03905,1.00225
1.26,0.979664,1.01021,1.03306,0.0444496,2.029,1.0024
1.27,0.95875,1.0112,1.02336,0.0362626,2.01911,1.00252
1.28,0.935259,1.01257,1.01389,0.0288278,2.00932,1.00269
1.29,0.907928,1.01421,1.00467,0.0221536,1.99982,1.00289
1.3,0.876331,1.01634,0.995747,0.016592,1.99051,1.00309
1.31,0.840089,1.01915,0.987162,0.0123679,1.98146,1.00341
1.32,0.79788,1.02226,0.978965,0.00898701,1.97279,1.00376
1.33,0.749157,1.02585,0.971225,0.00644855,1.96426,1.00421
1.34,0.692371,1.02937,0.964008,0.00415917,1.95632,1.00475
1.35,0.627652,1.03209,0.9574,0.000208645,1.94855,1.00544
1.36,0.554551,1.03677,0.95148,0.000291455,1.9415,1.00629
1.37,0.47561,1.04109,0.946324,-0,1.93485,1.00718
1.38,0.392518,1.045,0.941979,1.27583e-08,1.9291,1.00795
1.39,0.305696,1.04837,0.938482,-0,1.92401,1.00854
1.4,0.215822,1.05094,0.935871,5.07681e-09,1.92018,1.009
1.41,0.124123,1.05229,0.934167,5.43116e-09,1.91815,1.00923
1.42,0.0320343,1.05251,0.933385,3.72654e-09,1.91786,1.00928
1.43,-0.0583673,1.05191,0.933516,3.88079e-09,1.91864,1.00912
1.44,-0.145756,1.05043,0.934537,4.12258e-09,1.92052,1.00869
1.45,-0.229379,1.04829,0.936414,4.3287e-09,1.92322,1.00805
1.46,-0.306722,1.0456,0.939099,4.5053e-09,1.92679,1.00733
1.47,-0.375338,1.04251,0.942516,4.53696e-09,1.93122,1.00666
1.48,-0.432528,1.03897,0.946563,4.47535e-09,1.93643,1.00594
1.49,-0.479943,1.03513,0.951131,4.12001e-09,1.94216,1.0052
1.5,-0.516986,1.03113,0.956122,6.70491e-09,1.94826,1.00445
1.51,-0.544684,1.02687,0.961436,6.56737e-09,1.95497,1.00375
1.52,-0.563538,1.02266,0.966983,0.000159067,1.96178,1.00303
1.53,-0.574302,1.0184,0.972678,3.88623e-08,1.96852,1.00237
1.54,-0.575175,1.01428,0.978433,1.50741e-07,1.97526,1.00173
1.55,-0.567554,1.01036,0.984152,0.000230087,1.98196,1.00113
1.56,-0.552533,1.00631,0.989758,-0,1.98849,1.00051
1.57,-0.530707,1.00268,0.995179,-0,1.99469,1.00002
1.58,-0.502503,0.99915,1.00035,-0,2.00071,0.999507
1.59,-0.470262,0.995706,1.00522,-0,2.00675,0.999064
1.6,-0.434266,0.99285,1.00974,-0,2.01181,0.998712
1.61,-0.39525,0.990252,1.01389,-0,2.0165,0.998424
1.62,-0.354726,0.99027,1.01764,0.00463436,2.02062,0.998185
1.63,-0.313489,0.989925,1.02098,0.00762201,2.02408,0.998072
1.64,-0.271841,0.990468,1.02391,0.0115352,2.02693,0.998092
1.65,-0.231068,0.99157,1.02642,0.0161032,2.02941,0.998168
1.66,-0.194668,0.993086,1.02855,0.020727,2.03123,0.998302
1.67,-0.163564,0.995016,1.03033,0.0253358,2.0325,0.99858
1.68,-0.137674,0.997076,1.03184,0.0293945,2.03337,0.999058
1.69,-0.118094,0.999167,1.03311,0.033007,2.03414,0.999732
1.7,-0.10314,1.00138,1.03421,0.0359496,2.0342,1.00051
1.71,-0.0916515,1.00353,1.03518,0.0382238,2.0336,1.00121
1.72,-0.0822386,1.00532,1.03605,0.0400358,2.03281,1.00168
1.73,-0.0747296,1.00653,1.03684,0.0414231,2.03244,1.00201
1.74,-0.0681492,1.00707,1.03755,0.0424013,2.03262,1.00214
1.75,-0.0618441,1.00658,1.0382,0.0428451,2.03379,1.00202
1.76,-0.0545733,1.00539,1.03878,0.0429052,2.03547,1.00166
1.77,-0.0468689,1.00384,1.03929,0.0428464,2.0375,1.00115
1.78,-0.0380654,1.00211,1.03972,0.0424738,2.03926,1.0005
1.79,-0.027149,1.00034,1.04005,0.0416443,2.04067,0.999854
1.8,-0.0135435,0.99888,1.04025,0.0405786,2.04155,0.999367
1.81,0.00263831,0.997798,1.04031,0.0393117,2.04192,0.9991
