time,velocity,ratio,centerX,Xmax,Xmin,Ymax
0,0,1,3.5,2.5,4.5,1
0.01,0.0195896,0.999989,3.49991,2.49989,4.49993,1.00001
0.02,0.038965,1,3.49964,2.49962,4.49964,1.00001
0.03,0.0581518,1.00002,3.49918,2.49916,4.49916,1.00002
0.04,0.0771289,1.00004,3.49853,2.49851,4.49848,1.00002
0.05,0.0959335,1.00007,3.49768,2.49767,4.4976,1.00003
0.06,0.114545,1.00009,3.49666,2.49665,4.49652,1.00003
0.07,0.13297,1.00013,3.49544,2.49544,4.49525,1.00003
0.08,0.151176,1.00016,3.49405,2.49406,4.4938,1.00003
0.09,0.169233,1.00019,3.49248,2.4925,4.49217,1.00003
0.1,0.187116,1.00026,3.49073,2.49078,4.49035,1.00005
0.11,0.204805,1.00034,3.4888,2.48888,4.48835,1.00007
0.12,0.222318,1.00043,3.4867,2.48682,4.48617,1.0001
0.13,0.239659,1.00051,3.48442,2.48459,4.48382,1.00012
0.14,0.256831,1.00059,3.48196,2.48221,4.48133,1.00015
0.15,0.273867,1.00067,3.47934,2.47966,4.47867,1.00018
0.16,0.29071,1.00076,3.47654,2.47695,4.47584,1.0002
0.17,0.307382,1.00089,3.47358,2.47409,4.47281,1.00025
0.18,0.323871,1.00108,3.47045,2.47109,4.46959,1.00033
0.19,0.340219,1.00128,3.46716,2.46795,4.46618,1.0004
0.2,0.356616,1.00151,3.46371,2.46466,4.46257,1.00047
0.21,0.372618,1.00176,3.46009,2.46122,4.45878,1.00054
0.22,0.38844,1.00209,3.45631,2.45765,4.4548,1.00066
0.23,0.40407,1.00246,3.45237,2.45396,4.45062,1.00078
0.24,0.419585,1.00286,3.44828,2.45014,4.44624,1.00091
0.25,0.434847,1.00329,3.44403,2.44617,4.44167,1.00103
0.26,0.450029,1.00381,3.43964,2.44206,4.43689,1.00122
0.27,0.464936,1.00436,3.43509,2.43782,4.43193,1.0014
0.28,0.479712,1.00494,3.43039,2.43345,4.42674,1.00157
0.29,0.494255,1.00563,3.42554,2.42898,4.42134,1.00179
0.3,0.508635,1.00638,3.42055,2.42441,4.41577,1.00203
0.31,0.522851,1.00718,3.41542,2.41975,4.41001,1.00227
0.32,0.536806,1.00807,3.41014,2.41497,4.40403,1.00256
0.33,0.550636,1.00903,3.40473,2.41009,4.39788,1.00287
0.34,0.564179,1.01005,3.39918,2.40513,4.39151,1.00318
0.35,0.577581,1.01118,3.39349,2.40006,4.38494,1.00354
0.36,0.590843,1.01239,3.38767,2.3949,4.37816,1.00392
0.37,0.603795,1.01366,3.38172,2.38967,4.37118,1.00429
0.38,0.61656,1.01508,3.37564,2.38434,4.36397,1.00474
0.39,0.629086,1.01654,3.36944,2.37889,4.35656,1.00519
0.4,0.641382,1.01807,3.36311,2.37333,4.34895,1.00566
0.41,0.653395,1.0197,3.35665,2.36766,4.34115,1.00619
0.42,0.665391,1.02142,3.35008,2.36195,4.33312,1.0067
0.43,0.676991,1.0233,3.34339,2.35619,4.32487,1.00727
0.44,0.688354,1.02527,3.33658,2.35036,4.31638,1.00785
0.45,0.699466,1.02734,3.32966,2.34446,4.30767,1.00844
0.46,0.710341,1.02958,3.32263,2.33851,4.29872,1.0091
0.47,0.720975,1.03189,3.3155,2.33247,4.28955,1.00974
0.48,0.731371,1.03437,3.30825,2.32639,4.28013,1.01045
0.49,0.741493,1.03693,3.30091,2.32022,4.27051,1.01116
0.5,0.751353,1.03962,3.29346,2.31396,4.26062,1.01189
0.51,0.760937,1.04244,3.28592,2.30762,4.25053,1.01268
0.52,0.770067,1.04536,3.27828,2.30125,4.24017,1.01344
0.53,0.779076,1.0485,3.27055,2.29484,4.22959,1.01429
0.54,0.787839,1.05173,3.26273,2.28838,4.21876,1.01512
0.55,0.796365,1.05511,3.25483,2.28186,4.20773,1.016
0.56,0.803819,1.05865,3.24684,2.27531,4.19641,1.01689
0.57,0.811815,1.06235,3.23878,2.26872,4.18488,1.01782
0.58,0.819539,1.06625,3.23064,2.26211,4.17306,1.01878
0.59,0.826923,1.07026,3.22242,2.25541,4.16102,1.01976
0.6,0.834052,1.07446,3.21413,2.24864,4.14872,1.02078
0.61,0.840987,1.07874,3.20577,2.24178,4.13622,1.02181
0.62,0.847598,1.0833,3.19734,2.23493,4.12341,1.02289
0.63,0.853977,1.08798,3.18885,2.22807,4.11037,1.02396
0.64,0.860039,1.09294,3.18029,2.22118,4.09703,1.0251
0.65,0.865867,1.09799,3.17167,2.21426,4.0835,1.02621
0.66,0.871415,1.10332,3.163,2.20731,4.06968,1.02739
0.67,0.87668,1.10875,3.15427,2.20033,4.05566,1.02855
0.68,0.881752,1.11444,3.14549,2.19331,4.04134,1.02976
0.69,0.886525,1.12023,3.13666,2.18622,4.02684,1.03096
0.7,0.891035,1.12626,3.12779,2.17909,4.01204,1.03219
0.71,0.895264,1.13245,3.11887,2.17196,3.99706,1.03342
0.72,0.899321,1.13892,3.10991,2.16482,3.98179,1.03469
0.73,0.903104,1.14554,3.10091,2.15765,3.96636,1.03597
0.74,0.906556,1.15241,3.09187,2.15048,3.95065,1.03727
0.75,0.909754,1.15945,3.0828,2.14327,3.9348,1.0386
0.76,0.91277,1.16674,3.0737,2.13608,3.91869,1.03993
0.77,0.915557,1.17418,3.06456,2.12881,3.90245,1.04128
0.78,0.918191,1.18179,3.05541,2.12148,3.88597,1.04263
0.79,0.920589,1.1896,3.04622,2.11413,3.86937,1.04402
0.8,0.922795,1.19758,3.03701,2.10682,3.85263,1.04538
0.81,0.924782,1.20566,3.02779,2.09948,3.83595,1.04679
0.82,0.926599,1.21371,3.01854,2.09215,3.81934,1.04815
0.83,0.928228,1.22166,3.00927,2.08479,3.80307,1.04958
0.84,0.929639,1.22946,2.99999,2.07743,3.78708,1.05097
0.85,0.930882,1.23718,2.9907,2.07004,3.7714,1.05244
0.86,0.931955,1.2447,2.9814,2.06261,3.75596,1.05386
0.87,0.932973,1.2521,2.97208,2.05513,3.74087,1.05536
0.88,0.933878,1.25935,2.96275,2.04767,3.72599,1.0568
0.89,0.934573,1.26649,2.95342,2.04019,3.71143,1.05831
0.9,0.935146,1.27352,2.94408,2.03273,3.69705,1.05977
0.91,0.935592,1.28043,2.93474,2.02525,3.68293,1.06127
0.92,0.935944,1.28725,2.92539,2.01779,3.66898,1.06275
0.93,0.936217,1.29396,2.91603,2.01032,3.65524,1.06423
0.94,0.936366,1.30054,2.90668,2.00281,3.64169,1.06571
0.95,0.936399,1.30696,2.89732,1.99522,3.62834,1.06721
0.96,0.936288,1.31332,2.88797,1.98763,3.61512,1.06871
0.97,0.93606,1.31962,2.87862,1.98006,3.60207,1.07022
0.98,0.935779,1.32583,2.86927,1.97251,3.5892,1.07173
0.99,0.935149,1.33193,2.85992,1.96496,3.5765,1.07323
1,0.934757,1.33803,2.85058,1.95742,3.56389,1.07476
1.01,0.93429,1.34397,2.84124,1.94988,3.55147,1.07625
1.02,0.933758,1.34988,2.83191,1.94231,3.53918,1.07778
1.03,0.933158,1.35563,2.82258,1.93471,3.52696,1.07925
1.04,0.932534,1.36134,2.81326,1.92712,3.51494,1.08078
1.05,0.931823,1.36698,2.80395,1.91953,3.50297,1.08226
1.06,0.931049,1.3726,2.79464,1.91195,3.49117,1.08381
1.07,0.930201,1.37812,2.78535,1.90436,3.47941,1.0853
1.08,0.929319,1.38362,2.77606,1.89678,3.46782,1.08686
1.09,0.928286,1.38904,2.76678,1.8892,3.45628,1.08836
1.1,0.92743,1.39439,2.75751,1.88161,3.44489,1.08991
1.11,0.926436,1.39967,2.74825,1.87396,3.43351,1.09142
1.12,0.92544,1.40479,2.73899,1.86629,3.42234,1.09296
1.13,0.924447,1.40994,2.72975,1.85866,3.41115,1.09446
1.14,0.922673,1.41501,2.72053,1.85105,3.40012,1.09597
1.15,0.921592,1.42005,2.71131,1.84344,3.38914,1.09749
1.16,0.920467,1.42509,2.70211,1.83585,3.37821,1.09901
1.17,0.919248,1.43001,2.69292,1.82824,3.36744,1.10053
1.18,0.917977,1.43497,2.68374,1.82064,3.35663,1.10205
1.19,0.91678,1.43977,2.67458,1.81298,3.34599,1.10358
1.2,0.915523,1.44448,2.66543,1.80531,3.33539,1.10509
1.21,0.914241,1.44925,2.65628,1.79764,3.32481,1.10662
1.22,0.913023,1.45386,2.64716,1.79,3.31436,1.10811
1.23,0.911805,1.4585,2.63804,1.78235,3.30397,1.10964
1.24,0.910547,1.46312,2.62894,1.77472,3.29352,1.1111
1.25,0.909328,1.46767,2.61985,1.76709,3.28328,1.11263
1.26,0.908087,1.47216,2.61077,1.75948,3.27304,1.1141
1.27,0.906818,1.47672,2.6017,1.75182,3.2628,1.11566
1.28,0.905538,1.48105,2.59265,1.74412,3.2527,1.11714
1.29,0.904328,1.48543,2.58361,1.73643,3.24265,1.11869
1.3,0.902926,1.48985,2.57458,1.72879,3.23255,1.12018
1.31,0.90176,1.4942,2.56556,1.72115,3.22258,1.12172
1.32,0.900519,1.49845,2.55656,1.71352,3.21269,1.12321
1.33,0.899341,1.50273,2.54757,1.70588,3.2028,1.12473
1.34,0.898055,1.50701,2.53859,1.69826,3.19289,1.12621
1.35,0.896764,1.51109,2.52963,1.69059,3.18316,1.1277
1.36,0.895599,1.51519,2.52067,1.68291,3.17342,1.1292
1.37,0.894403,1.51927,2.51173,1.67522,3.16367,1.13068
1.38,0.893207,1.52341,2.5028,1.66756,3.15395,1.13219
1.39,0.891998,1.52735,2.49388,1.6599,3.14439,1.13367
1.4,0.890832,1.53142,2.48498,1.65227,3.13479,1.13518
1.41,0.889679,1.53543,2.47609,1.64463,3.12518,1.13664
1.42,0.888478,1.53948,2.4672,1.63702,3.11564,1.13815
1.43,0.887295,1.54332,2.45833,1.62938,3.1062,1.1396
1.44,0.88608,1.54721,2.44948,1.62169,3.09674,1.14111
1.45,0.884947,1.55103,2.44063,1.61401,3.08728,1.14254
1.46,0.883749,1.55496,2.43179,1.60638,3.07785,1.14404
1.47,0.882646,1.55868,2.42297,1.59874,3.06856,1.14549
1.48,0.881526,1.56256,2.41416,1.59113,3.05921,1.14699
1.49,0.880449,1.56638,2.40536,1.5835,3.04987,1.14845
1.5,0.879299,1.57029,2.39657,1.57589,3.04051,1.14994
1.51,0.878276,1.5739,2.38779,1.56825,3.03138,1.15141
1.52,0.877161,1.57763,2.37902,1.56059,3.02213,1.15288
1.53,0.876042,1.58133,2.37026,1.5529,3.01289,1.15436
1.54,0.874994,1.58507,2.36152,1.54525,3.00363,1.15582
1.55,0.873935,1.5887,2.35278,1.5376,2.9945,1.15728
1.56,0.872943,1.59229,2.34406,1.52998,2.98539,1.15871
1.57,0.871886,1.59594,2.33534,1.52235,2.97629,1.16019
1.58,0.87075,1.59964,2.32664,1.51476,2.96712,1.16163
1.59,0.869751,1.60338,2.31794,1.50715,2.95799,1.16312
1.6,0.868314,1.60683,2.30926,1.49951,2.94901,1.16455
1.61,0.867268,1.61038,2.30059,1.49185,2.94002,1.16606
1.62,0.866229,1.61392,2.29193,1.48424,2.931,1.16748
1.63,0.865147,1.61758,2.28328,1.47664,2.92199,1.16898
1.64,0.864033,1.62118,2.27465,1.46906,2.91296,1.17042
1.65,0.862997,1.62469,2.26602,1.46148,2.9041,1.17191
1.66,0.862042,1.62813,2.2574,1.45391,2.89521,1.17332
1.67,0.860969,1.63167,2.2488,1.44633,2.8863,1.17477
1.68,0.859982,1.63522,2.2402,1.43874,2.87735,1.17622
1.69,0.858931,1.63871,2.23162,1.43112,2.86845,1.17769
1.7,0.857883,1.64212,2.22304,1.42354,2.85967,1.17915
1.71,0.856921,1.64556,2.21447,1.41597,2.85087,1.18061
1.72,0.855932,1.64911,2.20592,1.40842,2.84202,1.18209
1.73,0.854938,1.6526,2.19737,1.40087,2.8332,1.18354
1.74,0.854099,1.65619,2.18884,1.39334,2.82436,1.18502
1.75,0.853117,1.65956,2.18031,1.38582,2.81565,1.18645
1.76,0.852053,1.663,2.17179,1.37827,2.80693,1.18793
1.77,0.851138,1.6663,2.16328,1.37067,2.79819,1.18934
1.78,0.850185,1.66976,2.15479,1.36309,2.78943,1.19082
1.79,0.849258,1.67322,2.1463,1.35555,2.78063,1.19224
1.8,0.848345,1.6766,2.13782,1.34803,2.77201,1.19373
1.81,0.847389,1.67993,2.12935,1.34052,2.76338,1.19516
1.82,0.846384,1.6834,2.12089,1.33303,2.75472,1.19664
1.83,0.845441,1.68686,2.11244,1.32556,2.74604,1.19808
1.84,0.844473,1.6904,2.104,1.31808,2.73731,1.19954
1.85,0.843495,1.69379,2.09557,1.31056,2.72868,1.20099
1.86,0.842607,1.69708,2.08715,1.30304,2.72011,1.20243
1.87,0.84161,1.70038,2.07873,1.29555,2.71156,1.20388
1.88,0.840731,1.70379,2.07033,1.28808,2.70292,1.2053
1.89,0.839792,1.70723,2.06194,1.28062,2.69433,1.20676
1.9,0.838882,1.71077,2.05355,1.27319,2.68563,1.20818
1.91,0.837985,1.71417,2.04518,1.26577,2.67714,1.20966
1.92,0.837081,1.71753,2.03681,1.25837,2.66864,1.21108
1.93,0.836161,1.72095,2.02845,1.25092,2.66012,1.21258
1.94,0.835224,1.72425,2.02011,1.24344,2.65158,1.214
1.95,0.834297,1.72774,2.01177,1.23598,2.64301,1.21549
1.96,0.833414,1.73122,2.00344,1.22858,2.63442,1.21691
1.97,0.832453,1.73459,1.99511,1.22118,2.62599,1.21838
1.98,0.831629,1.73794,1.9868,1.21382,2.61756,1.21981
1.99,0.830747,1.74142,1.9785,1.20647,2.60906,1.22125
2,0.829842,1.74489,1.97021,1.19914,2.60059,1.22269
2.01,0.828933,1.74844,1.96192,1.19178,2.59205,1.22414
2.02,0.828,1.75193,1.95365,1.18442,2.58356,1.2256
2.03,0.827152,1.75523,1.94538,1.17706,2.57522,1.22705
2.04,0.826301,1.75873,1.93712,1.16976,2.56682,1.22852
2.05,0.825248,1.76217,1.92887,1.16245,2.5584,1.22995
2.06,0.824383,1.76582,1.92063,1.15518,2.54992,1.23144
2.07,0.823497,1.76934,1.9124,1.14789,2.54146,1.23285
2.08,0.822571,1.773,1.90418,1.14065,2.53303,1.23434
2.09,0.821668,1.77634,1.89597,1.13341,2.52475,1.23575
2.1,0.82072,1.77987,1.88776,1.12615,2.51638,1.23722
2.11,0.819742,1.78326,1.87957,1.11884,2.50804,1.23865
2.12,0.818855,1.78693,1.87138,1.11159,2.4996,1.24013
2.13,0.817965,1.79054,1.86321,1.10438,2.49121,1.24159
2.14,0.816999,1.79422,1.85504,1.09719,2.48282,1.24307
2.15,0.816075,1.79773,1.84689,1.09001,2.47457,1.24454
2.16,0.814953,1.80132,1.83874,1.08285,2.46628,1.246
2.17,0.814004,1.80499,1.8306,1.07571,2.45798,1.24749
2.18,0.813089,1.80871,1.82248,1.06857,2.4496,1.24894
2.19,0.812162,1.81247,1.81436,1.06141,2.44123,1.25043
2.2,0.811186,1.81611,1.80625,1.05426,2.43287,1.25185
2.21,0.809886,1.81978,1.79815,1.04715,2.42463,1.25336
2.22,0.808793,1.82337,1.79007,1.04007,2.41641,1.25479
2.23,0.807817,1.82719,1.78199,1.03301,2.40813,1.2563
2.24,0.80681,1.83097,1.77393,1.02598,2.39985,1.25775
2.25,0.805848,1.83495,1.76587,1.01896,2.39149,1.25926
2.26,0.804888,1.83891,1.75783,1.01198,2.38315,1.26073
2.27,0.803839,1.84251,1.74979,1.00497,2.37508,1.26222
2.28,0.802646,1.84642,1.74177,0.997955,2.36677,1.26371
2.29,0.801613,1.85019,1.73375,0.990911,2.35854,1.26518
2.3,0.800588,1.85413,1.72575,0.983943,2.35027,1.26667
2.31,0.799542,1.85809,1.71776,0.977002,2.34198,1.26812
2.32,0.798496,1.86224,1.70978,0.970101,2.33366,1.26964
2.33,0.79734,1.86608,1.70181,0.96322,2.32553,1.27109
2.34,0.796232,1.87015,1.69385,0.956373,2.31736,1.27263
2.35,0.795119,1.87416,1.6859,0.949549,2.3092,1.2741
2.36,0.79399,1.87841,1.67796,0.942728,2.30094,1.27564
2.37,0.792764,1.88255,1.67004,0.935898,2.2927,1.27713
2.38,0.791493,1.88688,1.66212,0.92908,2.28439,1.27866
2.39,0.790325,1.89094,1.65422,0.922305,2.2763,1.28017
2.4,0.78918,1.89512,1.64633,0.915571,2.26817,1.28167
2.41,0.787938,1.89929,1.63845,0.908852,2.26008,1.28318
2.42,0.786636,1.90367,1.63059,0.902177,2.25186,1.28468
2.43,0.785267,1.90808,1.62274,0.895518,2.2437,1.28622
2.44,0.783875,1.91269,1.6149,0.888911,2.2354,1.28771
2.45,0.78241,1.91716,1.60708,0.882303,2.22729,1.28928
2.46,0.781076,1.92139,1.59926,0.875687,2.21927,1.29077
2.47,0.779747,1.92579,1.59147,0.869047,2.2112,1.29236
2.48,0.778366,1.93018,1.58368,0.862471,2.20315,1.29388
2.49,0.776961,1.93491,1.57592,0.85594,2.19496,1.29544
2.5,0.775592,1.93973,1.56816,0.849446,2.18672,1.29698
2.51,0.774175,1.94449,1.56042,0.842982,2.17857,1.29851
2.52,0.772762,1.9491,1.55269,0.836553,2.17057,1.30006
2.53,0.771285,1.95376,1.54498,0.830149,2.16256,1.30161
2.54,0.769668,1.95863,1.53728,0.823787,2.15451,1.30319
2.55,0.768236,1.96344,1.5296,0.817416,2.14645,1.30474
2.56,0.766765,1.96853,1.52193,0.811056,2.1383,1.30636
2.57,0.765254,1.97349,1.51428,0.804698,2.13017,1.3079
2.58,0.763691,1.97848,1.50664,0.798403,2.12219,1.30954
2.59,0.761935,1.98343,1.49902,0.79214,2.1142,1.31111
2.6,0.760373,1.98856,1.49142,0.785919,2.1062,1.31273
2.61,0.758729,1.99373,1.48383,0.77973,2.09817,1.3143
2.62,0.757126,1.99905,1.47626,0.773578,2.0901,1.3159
2.63,0.755501,2.00452,1.4687,0.76746,2.082,1.31751
2.64,0.753663,2.00988,1.46116,0.761393,2.07401,1.31911
2.65,0.752055,2.01524,1.45364,0.755318,2.06608,1.32076
2.66,0.75032,2.02051,1.44614,0.749241,2.05815,1.32234
2.67,0.748502,2.02608,1.43865,0.743163,2.05013,1.32402
2.68,0.746679,2.03166,1.43118,0.737167,2.04213,1.32562
2.69,0.744826,2.0375,1.42373,0.731219,2.03407,1.32728
2.7,0.743038,2.04326,1.4163,0.725314,2.02608,1.3289
2.71,0.741212,2.04886,1.40888,0.719444,2.01825,1.33054
2.72,0.739375,2.05463,1.40149,0.713617,2.01038,1.33219
2.73,0.73746,2.06057,1.39411,0.707818,2.00244,1.33383
2.74,0.73545,2.06668,1.38675,0.702073,1.99451,1.33552
2.75,0.733502,2.07293,1.37941,0.696341,1.98646,1.33716
2.76,0.731528,2.07931,1.3721,0.690631,1.97845,1.33888
2.77,0.729569,2.08522,1.3648,0.684931,1.97069,1.34054
2.78,0.727383,2.09139,1.35752,0.679286,1.96289,1.34226
2.79,0.72545,2.09772,1.35026,0.673694,1.95504,1.34395
2.8,0.723411,2.10416,1.34302,0.668157,1.94718,1.34564
2.81,0.721324,2.1109,1.3358,0.662643,1.93921,1.34735
2.82,0.719231,2.11765,1.32861,0.657179,1.93127,1.34904
2.83,0.716927,2.12432,1.32143,0.651744,1.92349,1.3508
2.84,0.714782,2.13095,1.31428,0.64636,1.91574,1.35249
2.85,0.712592,2.13789,1.30715,0.641023,1.90796,1.35429
2.86,0.71035,2.14486,1.30004,0.635735,1.90017,1.35602
2.87,0.708117,2.15209,1.29296,0.630447,1.89228,1.35779
2.88,0.705525,2.15932,1.2859,0.625173,1.88442,1.35955
2.89,0.703092,2.16638,1.27886,0.619904,1.87666,1.3613
2.9,0.700759,2.17359,1.27185,0.614714,1.86894,1.36309
2.91,0.698371,2.18091,1.26485,0.609586,1.86121,1.36484
2.92,0.695834,2.18851,1.25789,0.604514,1.85348,1.36669
2.93,0.693396,2.19622,1.25095,0.599479,1.84568,1.36847
2.94,0.690972,2.20412,1.24403,0.594499,1.83791,1.37032
2.95,0.688584,2.21202,1.23714,0.589555,1.83018,1.37215
2.96,0.686092,2.21982,1.23028,0.58466,1.82258,1.37398
2.97,0.683371,2.22781,1.22343,0.579809,1.81496,1.37584
2.98,0.680856,2.23588,1.21662,0.575009,1.80732,1.37764
2.99,0.678312,2.24432,1.20983,0.57022,1.79958,1.37954
3,0.675681,2.25271,1.20306,0.565457,1.79187,1.38138
3.01,0.672895,2.26131,1.19632,0.560715,1.78415,1.38329
3.02,0.670258,2.2696,1.18962,0.556036,1.77666,1.38517
3.03,0.667638,2.27812,1.18293,0.55141,1.76913,1.38706
3.04,0.664973,2.28689,1.17627,0.546842,1.76159,1.38899
3.05,0.662256,2.29583,1.16964,0.542309,1.75395,1.39087
3.06,0.659343,2.30506,1.16304,0.537822,1.74631,1.39282
3.07,0.656706,2.31441,1.15646,0.533375,1.73862,1.39471
3.08,0.653881,2.32342,1.14992,0.528981,1.73124,1.39667
3.09,0.650801,2.33265,1.1434,0.524625,1.7238,1.39863
3.1,0.647939,2.34204,1.13691,0.520329,1.71636,1.40057
3.11,0.644865,2.35177,1.13045,0.516084,1.70887,1.40259
3.12,0.642008,2.36172,1.12402,0.511889,1.7013,1.40453
3.13,0.639057,2.37183,1.11762,0.507706,1.69377,1.40657
3.14,0.636134,2.38154,1.11125,0.503546,1.68644,1.40855
3.15,0.633223,2.39135,1.10491,0.499399,1.67912,1.41056
3.16,0.630216,2.40149,1.0986,0.495296,1.67174,1.41261
3.17,0.627028,2.4117,1.09232,0.491268,1.66439,1.41461
3.18,0.624071,2.42256,1.08606,0.487306,1.6569,1.41671
3.19,0.621064,2.43328,1.07984,0.483392,1.64952,1.41876
3.2,0.618025,2.4439,1.07365,0.479519,1.64229,1.42085
3.21,0.614907,2.45461,1.06749,0.475685,1.63509,1.42294
3.22,0.61182,2.46562,1.06136,0.471901,1.62779,1.42499
3.23,0.608427,2.47683,1.05527,0.468161,1.62055,1.42714
3.24,0.605294,2.48846,1.0492,0.464465,1.61316,1.42923
3.25,0.602084,2.50018,1.04317,0.46081,1.60585,1.43141
3.26,0.598897,2.51169,1.03717,0.457206,1.59872,1.43356
3.27,0.595619,2.52316,1.0312,0.453645,1.59167,1.43571
3.28,0.592481,2.53512,1.02526,0.450126,1.58453,1.43792
3.29,0.589265,2.54705,1.01936,0.446627,1.5774,1.44007
3.3,0.585943,2.55946,1.01349,0.443159,1.57019,1.44229
3.31,0.582699,2.57185,1.00765,0.439717,1.56304,1.44451
3.32,0.579363,2.58426,1.00184,0.436313,1.55594,1.44671
3.33,0.57607,2.59668,0.99607,0.432964,1.549,1.44899
3.34,0.572642,2.60932,0.990332,0.429674,1.54201,1.45122
3.35,0.56933,2.62235,0.984625,0.426426,1.53498,1.45351
3.36,0.566017,2.63557,0.978953,0.423225,1.52794,1.45577
3.37,0.562565,2.64904,0.973314,0.42006,1.52085,1.45802
3.38,0.559241,2.66219,0.967709,0.416933,1.51405,1.46037
3.39,0.555908,2.6755,0.962139,0.413844,1.50722,1.46267
3.4,0.552503,2.68913,0.956598,0.410802,1.50039,1.46502
3.41,0.549058,2.70314,0.951096,0.407801,1.49349,1.46738
3.42,0.545626,2.71753,0.945625,0.404846,1.48648,1.46969
3.43,0.542172,2.73195,0.940192,0.401925,1.47962,1.4721
3.44,0.538731,2.74599,0.934789,0.399053,1.47296,1.47447
3.45,0.535003,2.76026,0.929425,0.396222,1.46631,1.47687
3.46,0.531573,2.77506,0.924096,0.393438,1.45959,1.47932
3.47,0.528156,2.79001,0.9188,0.390695,1.45286,1.48172
3.48,0.5247,2.80539,0.913541,0.387991,1.4461,1.4842
3.49,0.521285,2.82071,0.908313,0.385303,1.43941,1.48666
3.5,0.517815,2.83577,0.903123,0.382637,1.43285,1.48908
3.51,0.514319,2.85117,0.897964,0.379986,1.42631,1.49162
3.52,0.510821,2.86677,0.892842,0.377359,1.41973,1.49412
3.53,0.507376,2.88252,0.887756,0.374752,1.41317,1.49663
3.54,0.503815,2.89897,0.882702,0.37219,1.4065,1.49921
3.55,0.500333,2.91491,0.877687,0.369693,1.40007,1.50172
3.56,0.496669,2.93101,0.872703,0.367246,1.39372,1.5043
3.57,0.493185,2.9474,0.867759,0.364837,1.38736,1.50689
3.58,0.489763,2.96417,0.862846,0.362464,1.38092,1.50944
3.59,0.486212,2.98138,0.857969,0.360124,1.37448,1.5121
3.6,0.482664,2.99881,0.853129,0.35782,1.36804,1.51473
3.61,0.479211,3.01569,0.848322,0.355543,1.36182,1.51731
3.62,0.47571,3.03298,0.843552,0.353302,1.35562,1.52
3.63,0.472231,3.0504,0.838815,0.351093,1.34942,1.52265
3.64,0.468721,3.06829,0.834112,0.348919,1.34316,1.52531
3.65,0.465297,3.08647,0.829447,0.346776,1.33694,1.52805
3.66,0.46188,3.10498,0.824811,0.344668,1.33066,1.53075
3.67,0.458361,3.12286,0.820216,0.34259,1.32466,1.53344
3.68,0.454947,3.14129,0.815652,0.340542,1.31862,1.5362
3.69,0.45141,3.1597,0.811122,0.338524,1.31262,1.53893
3.7,0.447904,3.17888,0.80663,0.336538,1.3065,1.54169
