time,velocity,ratio,centerX,Xmax,Xmin,Ymax
0,0,1,41,40,42,1
0.01,0.0197745,1,40.9999,39.9999,41.9999,1
0.02,0.0393708,1,40.9996,39.9996,41.9996,1
0.03,0.0587515,1.00001,40.9991,39.9991,41.9991,0.999998
0.04,0.0779151,1.00002,40.9984,39.9985,41.9984,0.999997
0.05,0.0968701,1.00001,40.9976,39.9976,41.9976,0.999997
0.06,0.115594,1.00002,40.9965,39.9965,41.9965,0.999998
0.07,0.134123,1.00003,40.9953,39.9953,41.9952,0.999999
0.08,0.152477,1.00005,40.9938,39.9939,41.9938,0.999999
0.09,0.170651,1.00007,40.9922,39.9923,41.9922,0.999998
0.1,0.188753,1.00013,40.9904,39.9905,41.9903,1.00003
0.11,0.206622,1.00019,40.9885,39.9886,41.9883,1.00005
0.12,0.224296,1.00025,40.9863,39.9865,41.9861,1.00008
0.13,0.241811,1.00033,40.984,39.9842,41.9838,1.0001
0.14,0.25918,1.0004,40.9815,39.9818,41.9812,1.00011
0.15,0.276363,1.00047,40.9788,39.9792,41.9785,1.00013
0.16,0.293356,1.00056,40.976,39.9764,41.9756,1.00017
0.17,0.310208,1.0007,40.9729,39.9734,41.9725,1.00023
0.18,0.326898,1.00087,40.9698,39.9703,41.9692,1.00029
0.19,0.343451,1.00106,40.9664,39.9671,41.9657,1.00035
0.2,0.359777,1.00127,40.9629,39.9637,41.962,1.0004
0.21,0.375946,1.00148,40.9592,39.9602,41.9581,1.00046
0.22,0.392004,1.00172,40.9554,39.9565,41.9542,1.00056
0.23,0.407842,1.00198,40.9514,39.9526,41.95,1.00065
0.24,0.423509,1.00226,40.9472,39.9487,41.9456,1.00074
0.25,0.439008,1.00258,40.9429,39.9446,41.9411,1.00084
0.26,0.454541,1.00291,40.9385,39.9403,41.9364,1.00096
0.27,0.469755,1.00325,40.9338,39.9359,41.9315,1.00107
0.28,0.484657,1.00361,40.9291,39.9313,41.9265,1.00117
0.29,0.499571,1.00406,40.9241,39.9267,41.9213,1.00132
0.3,0.514307,1.00448,40.9191,39.9219,41.9159,1.00146
0.31,0.528879,1.00489,40.9139,39.917,41.9104,1.00159
0.32,0.543373,1.0054,40.9085,39.9119,41.9047,1.00177
0.33,0.557673,1.00587,40.903,39.9067,41.8988,1.00193
0.34,0.571711,1.00634,40.8974,39.9013,41.8929,1.00207
0.35,0.585727,1.0069,40.8916,39.8959,41.8867,1.00227
0.36,0.599561,1.00743,40.8856,39.8903,41.8804,1.00244
0.37,0.61335,1.00794,40.8796,39.8846,41.874,1.00262
0.38,0.626932,1.00853,40.8734,39.8787,41.8674,1.00281
0.39,0.640334,1.00904,40.867,39.8727,41.8607,1.00297
0.4,0.653804,1.00962,40.8606,39.8666,41.8539,1.00319
0.41,0.66693,1.01018,40.854,39.8604,41.8469,1.00337
0.42,0.67997,1.01076,40.8472,39.854,41.8398,1.00357
0.43,0.692857,1.01137,40.8404,39.8475,41.8325,1.00376
0.44,0.705563,1.01192,40.8334,39.8409,41.8252,1.00394
0.45,0.718226,1.01254,40.8263,39.8342,41.8176,1.00415
0.46,0.730745,1.01308,40.819,39.8273,41.81,1.00432
0.47,0.743164,1.01369,40.8117,39.8203,41.8023,1.00453
0.48,0.755433,1.01423,40.8042,39.8132,41.7944,1.00469
0.49,0.767643,1.01481,40.7966,39.806,41.7864,1.00491
0.5,0.779734,1.01536,40.7888,39.7986,41.7783,1.00507
0.51,0.791516,1.01593,40.781,39.7911,41.7701,1.00528
0.52,0.803388,1.01645,40.773,39.7835,41.7618,1.00543
0.53,0.815153,1.01701,40.7649,39.7757,41.7534,1.00564
0.54,0.82685,1.01752,40.7567,39.7679,41.7448,1.00579
0.55,0.838426,1.01805,40.7484,39.7599,41.7362,1.00598
0.56,0.849931,1.01853,40.7399,39.7518,41.7274,1.00613
0.57,0.861214,1.01904,40.7314,39.7436,41.7186,1.00631
0.58,0.872418,1.01954,40.7227,39.7352,41.7096,1.00647
0.59,0.883721,1.02,40.7139,39.7268,41.7005,1.00663
0.6,0.894824,1.02049,40.705,39.7182,41.6913,1.00678
0.61,0.905795,1.02092,40.696,39.7095,41.682,1.00691
0.62,0.916674,1.02138,40.6869,39.7007,41.6727,1.00708
0.63,0.927492,1.0218,40.6777,39.6917,41.6632,1.00721
0.64,0.938199,1.02223,40.6684,39.6827,41.6536,1.00736
0.65,0.948873,1.02268,40.6589,39.6735,41.6439,1.00751
0.66,0.9594,1.02307,40.6494,39.6643,41.6341,1.00763
0.67,0.969846,1.02351,40.6398,39.6549,41.6242,1.00779
0.68,0.980244,1.02393,40.63,39.6454,41.6142,1.00791
0.69,0.990222,1.02431,40.6202,39.6359,41.6041,1.00805
0.7,1.00045,1.02473,40.6102,39.6262,41.5939,1.0082
0.71,1.01063,1.02512,40.6002,39.6164,41.5836,1.00831
0.72,1.02065,1.02553,40.59,39.6065,41.5732,1.00846
0.73,1.03054,1.02595,40.5797,39.5965,41.5627,1.0086
0.74,1.04039,1.02632,40.5694,39.5864,41.5521,1.00871
0.75,1.05015,1.02673,40.5589,39.5762,41.5414,1.00886
0.76,1.05975,1.02717,40.5484,39.5659,41.5305,1.009
0.77,1.06925,1.02754,40.5377,39.5555,41.5196,1.00911
0.78,1.07873,1.02799,40.527,39.545,41.5086,1.00926
0.79,1.08826,1.02844,40.5162,39.5345,41.4975,1.00941
0.8,1.09747,1.02886,40.5052,39.5238,41.4863,1.00954
0.81,1.10676,1.02931,40.4942,39.5131,41.475,1.00969
0.82,1.11579,1.02979,40.4831,39.5023,41.4636,1.00985
0.83,1.12476,1.03023,40.4719,39.4914,41.4521,1.00999
0.84,1.13365,1.03068,40.4606,39.4804,41.4405,1.01012
0.85,1.14242,1.0312,40.4492,39.4693,41.4288,1.0103
0.86,1.15128,1.03166,40.4378,39.4581,41.417,1.01047
0.87,1.15985,1.03213,40.4262,39.4469,41.4052,1.01062
0.88,1.1684,1.03263,40.4146,39.4356,41.3932,1.01077
0.89,1.17686,1.03316,40.4029,39.4242,41.3812,1.01095
0.9,1.18528,1.03368,40.391,39.4127,41.369,1.01113
0.91,1.19357,1.03417,40.3791,39.4011,41.3569,1.01129
0.92,1.20188,1.0347,40.3672,39.3895,41.3445,1.01145
0.93,1.21005,1.03527,40.3551,39.3777,41.3321,1.01165
0.94,1.218,1.03581,40.343,39.3659,41.3197,1.01184
0.95,1.22596,1.03633,40.3308,39.3541,41.3071,1.01201
0.96,1.23388,1.03688,40.3185,39.3421,41.2945,1.01218
0.97,1.2417,1.03744,40.3061,39.3301,41.2817,1.01236
0.98,1.24946,1.038,40.2936,39.318,41.2689,1.01255
0.99,1.25707,1.03852,40.2811,39.3058,41.2561,1.01274
1,1.26482,1.03905,40.2685,39.2935,41.2432,1.01291
1.01,1.27236,1.0396,40.2558,39.2812,41.2301,1.01307
1.02,1.27981,1.04014,40.243,39.2688,41.217,1.01324
1.03,1.28717,1.04071,40.2302,39.2563,41.2039,1.01344
1.04,1.29443,1.04123,40.2173,39.2437,41.1907,1.01362
1.05,1.30166,1.04178,40.2043,39.2311,41.1774,1.01379
1.06,1.30872,1.0423,40.1913,39.2184,41.164,1.01396
1.07,1.31584,1.04282,40.1781,39.2056,41.1506,1.01412
1.08,1.32287,1.04333,40.165,39.1928,41.1371,1.01428
1.09,1.32989,1.04384,40.1517,39.1798,41.1235,1.01446
1.1,1.33689,1.04434,40.1384,39.1668,41.1099,1.01463
1.11,1.34379,1.0448,40.125,39.1537,41.0963,1.01479
1.12,1.35061,1.04529,40.1115,39.1406,41.0825,1.01495
1.13,1.3574,1.04576,40.0979,39.1274,41.0687,1.0151
1.14,1.36413,1.04622,40.0843,39.1141,41.0548,1.01524
1.15,1.37085,1.04665,40.0707,39.1007,41.0409,1.01538
1.16,1.37748,1.04711,40.0569,39.0872,41.027,1.01555
1.17,1.38408,1.04756,40.0431,39.0737,41.0129,1.01571
1.18,1.39062,1.04798,40.0292,39.0602,40.9988,1.01585
1.19,1.39723,1.04842,40.0153,39.0465,40.9846,1.01599
1.2,1.40372,1.04881,40.0013,39.0328,40.9704,1.01612
1.21,1.4103,1.04922,39.9872,39.019,40.9561,1.01625
1.22,1.41665,1.0496,39.9731,39.0051,40.9418,1.01637
1.23,1.42285,1.04999,39.9589,38.9912,40.9274,1.01649
1.24,1.42918,1.05036,39.9446,38.9772,40.9129,1.01661
1.25,1.43533,1.05073,39.9303,38.9631,40.8984,1.01672
1.26,1.44155,1.05113,39.9159,38.949,40.8838,1.01686
1.27,1.44764,1.05149,39.9015,38.9348,40.8692,1.01698
1.28,1.45365,1.05186,39.887,38.9206,40.8545,1.01711
1.29,1.4596,1.05222,39.8724,38.9062,40.8397,1.01722
1.3,1.46553,1.05259,39.8578,38.8919,40.8249,1.01734
1.31,1.47132,1.05294,39.8431,38.8774,40.81,1.01746
1.32,1.47708,1.05331,39.8284,38.8629,40.7951,1.01758
1.33,1.48305,1.05367,39.8136,38.8484,40.7801,1.0177
1.34,1.48893,1.05403,39.7987,38.8337,40.765,1.01781
1.35,1.49458,1.05439,39.7838,38.8191,40.7499,1.01793
1.36,1.50032,1.05475,39.7688,38.8043,40.7347,1.01805
1.37,1.50592,1.0551,39.7538,38.7895,40.7195,1.01816
1.38,1.51145,1.05547,39.7387,38.7747,40.7042,1.01828
1.39,1.51687,1.05584,39.7236,38.7598,40.6888,1.0184
1.4,1.52209,1.05621,39.7084,38.7448,40.6734,1.01852
1.41,1.52742,1.05657,39.6931,38.7298,40.658,1.01864
1.42,1.53265,1.05696,39.6778,38.7148,40.6425,1.01877
1.43,1.53784,1.05735,39.6625,38.6997,40.6269,1.01889
1.44,1.54303,1.05774,39.6471,38.6845,40.6113,1.01901
1.45,1.54819,1.05809,39.6316,38.6693,40.5956,1.01914
1.46,1.55316,1.05848,39.6161,38.654,40.5799,1.01926
1.47,1.55815,1.05887,39.6006,38.6387,40.5641,1.01938
1.48,1.563,1.05926,39.5849,38.6233,40.5483,1.01951
1.49,1.56785,1.05964,39.5693,38.6079,40.5324,1.01964
1.5,1.57285,1.06004,39.5536,38.5925,40.5165,1.01977
1.51,1.5776,1.06044,39.5378,38.577,40.5005,1.01989
1.52,1.58244,1.06085,39.522,38.5614,40.4845,1.02002
1.53,1.58708,1.06123,39.5062,38.5458,40.4684,1.02015
1.54,1.59181,1.06163,39.4903,38.5302,40.4523,1.02028
1.55,1.59645,1.06203,39.4744,38.5145,40.4361,1.02041
1.56,1.60095,1.0624,39.4584,38.4987,40.4199,1.02054
1.57,1.60553,1.06277,39.4423,38.483,40.4037,1.02067
1.58,1.61001,1.06316,39.4263,38.4671,40.3875,1.0208
1.59,1.61441,1.06354,39.4101,38.4513,40.3711,1.02093
1.6,1.61883,1.06391,39.394,38.4353,40.3548,1.02105
1.61,1.62318,1.06427,39.3778,38.4194,40.3384,1.02117
1.62,1.62747,1.06464,39.3615,38.4033,40.3219,1.0213
1.63,1.63169,1.06501,39.3452,38.3873,40.3054,1.02142
1.64,1.6359,1.06535,39.3289,38.3712,40.2889,1.02154
1.65,1.64015,1.06571,39.3125,38.355,40.2724,1.02165
1.66,1.64432,1.06608,39.2961,38.3389,40.2557,1.02177
1.67,1.64859,1.06644,39.2796,38.3227,40.2391,1.02188
1.68,1.65282,1.06676,39.2631,38.3064,40.2224,1.02198
1.69,1.65704,1.0671,39.2466,38.2901,40.2057,1.02208
1.7,1.6611,1.06744,39.23,38.2737,40.1889,1.02219
1.71,1.66503,1.06777,39.2133,38.2573,40.1721,1.02228
1.72,1.66889,1.06807,39.1967,38.2409,40.1553,1.02239
1.73,1.6728,1.06842,39.18,38.2244,40.1384,1.02251
1.74,1.67668,1.06875,39.1632,38.2079,40.1216,1.02262
1.75,1.68061,1.06908,39.1464,38.1913,40.1046,1.02273
1.76,1.68441,1.06937,39.1296,38.1747,40.0876,1.02283
1.77,1.68821,1.06968,39.1127,38.158,40.0706,1.02294
1.78,1.69189,1.06998,39.0958,38.1413,40.0536,1.02303
1.79,1.69561,1.07026,39.0789,38.1246,40.0365,1.02312
1.8,1.69934,1.07055,39.0619,38.1078,40.0194,1.02321
1.81,1.7031,1.07083,39.0449,38.091,40.0022,1.0233
1.82,1.70675,1.07111,39.0279,38.0741,39.985,1.02338
1.83,1.71029,1.07134,39.0108,38.0572,39.9678,1.02346
1.84,1.71399,1.07161,38.9937,38.0402,39.9505,1.02355
1.85,1.71747,1.07188,38.9765,38.0232,39.9332,1.02365
1.86,1.72099,1.07215,38.9593,38.0062,39.9159,1.02374
1.87,1.72452,1.07241,38.9421,37.9892,39.8986,1.02383
1.88,1.72813,1.07268,38.9248,37.9721,39.8812,1.02392
1.89,1.73163,1.07295,38.9075,37.955,39.8637,1.024
1.9,1.73499,1.07318,38.8902,37.9378,39.8463,1.02407
1.91,1.7384,1.07342,38.8728,37.9206,39.8288,1.02414
1.92,1.74172,1.07364,38.8554,37.9033,39.8112,1.02421
1.93,1.745,1.07387,38.838,37.8861,39.7937,1.02428
1.94,1.74839,1.07409,38.8205,37.8687,39.7762,1.02438
1.95,1.75164,1.07435,38.803,37.8514,39.7586,1.02447
1.96,1.75483,1.07461,38.7855,37.8341,39.7409,1.02456
1.97,1.75799,1.07485,38.7679,37.8167,39.7232,1.02465
1.98,1.76132,1.07511,38.7503,37.7992,39.7055,1.02472
1.99,1.76447,1.07537,38.7327,37.7818,39.6877,1.02479
2,1.76756,1.07562,38.7151,37.7643,39.6699,1.02486
2.01,1.77052,1.07583,38.6974,37.7467,39.6521,1.02493
2.02,1.77354,1.07611,38.6796,37.7292,39.6343,1.02503
2.03,1.7767,1.07638,38.6619,37.7116,39.6164,1.02513
2.04,1.7796,1.07663,38.6441,37.694,39.5985,1.02522
2.05,1.78252,1.07689,38.6263,37.6763,39.5805,1.0253
2.06,1.78531,1.07716,38.6085,37.6587,39.5625,1.02538
2.07,1.78811,1.07741,38.5906,37.641,39.5445,1.02545
2.08,1.79097,1.07762,38.5727,37.6232,39.5265,1.02551
2.09,1.79385,1.0779,38.5548,37.6055,39.5084,1.02562
2.1,1.79661,1.07816,38.5368,37.5877,39.4904,1.02572
2.11,1.79934,1.07841,38.5189,37.5699,39.4723,1.02581
2.12,1.80208,1.07867,38.5008,37.552,39.4541,1.02588
2.13,1.8047,1.07894,38.4828,37.5341,39.4359,1.02595
2.14,1.8073,1.07919,38.4648,37.5162,39.4177,1.02602
2.15,1.8099,1.07942,38.4467,37.4983,39.3995,1.0261
2.16,1.8125,1.07969,38.4286,37.4803,39.3813,1.0262
2.17,1.81519,1.07995,38.4104,37.4624,39.363,1.0263
2.18,1.81771,1.08018,38.3923,37.4443,39.3447,1.02638
2.19,1.82028,1.08042,38.3741,37.4263,39.3264,1.02645
2.2,1.8228,1.08065,38.3558,37.4082,39.308,1.0265
2.21,1.82531,1.08087,38.3376,37.3902,39.2897,1.02658
2.22,1.82782,1.08108,38.3193,37.372,39.2714,1.02667
2.23,1.83036,1.08132,38.3011,37.3539,39.253,1.02676
2.24,1.83272,1.08156,38.2827,37.3357,39.2345,1.02684
2.25,1.83521,1.08178,38.2644,37.3176,39.2161,1.0269
2.26,1.83758,1.08199,38.246,37.2994,39.1976,1.02695
2.27,1.8399,1.08223,38.2276,37.2811,39.1791,1.02703
2.28,1.84222,1.08245,38.2092,37.2629,39.1606,1.02712
2.29,1.84454,1.08265,38.1908,37.2446,39.1421,1.0272
2.3,1.84704,1.08289,38.1723,37.2262,39.1235,1.02726
2.31,1.84933,1.0831,38.1539,37.2079,39.1049,1.02731
2.32,1.85154,1.08329,38.1354,37.1896,39.0863,1.02737
2.33,1.85383,1.08351,38.1168,37.1712,39.0677,1.02745
2.34,1.85603,1.08371,38.0983,37.1527,39.0491,1.02753
2.35,1.85823,1.08388,38.0797,37.1343,39.0304,1.02759
2.36,1.86058,1.08406,38.0611,37.1158,39.0117,1.02764
2.37,1.86283,1.08425,38.0425,37.0974,38.993,1.02768
2.38,1.86503,1.08446,38.0239,37.0789,38.9743,1.02776
2.39,1.86721,1.08464,38.0052,37.0603,38.9556,1.02783
2.4,1.86944,1.08481,37.9865,37.0417,38.9368,1.02789
2.41,1.87155,1.08499,37.9678,37.0231,38.918,1.02794
2.42,1.87359,1.08514,37.9491,37.0046,38.8992,1.02796
2.43,1.87574,1.08535,37.9304,36.9859,38.8803,1.02804
2.44,1.8778,1.08556,37.9116,36.9673,38.8615,1.02811
2.45,1.87975,1.08571,37.8928,36.9486,38.8426,1.02817
2.46,1.88176,1.08586,37.874,36.9299,38.8237,1.02821
2.47,1.88387,1.08601,37.8552,36.9112,38.8048,1.02824
2.48,1.88589,1.08621,37.8363,36.8925,38.7859,1.02832
2.49,1.88793,1.08636,37.8174,36.8737,38.7669,1.02838
2.5,1.88986,1.08651,37.7986,36.8549,38.748,1.02844
2.51,1.89182,1.08667,37.7797,36.8361,38.729,1.02848
2.52,1.89373,1.08682,37.7607,36.8173,38.71,1.02852
2.53,1.89562,1.08702,37.7418,36.7984,38.6909,1.02858
2.54,1.89759,1.08718,37.7228,36.7796,38.6719,1.02864
2.55,1.89944,1.08731,37.7038,36.7607,38.6529,1.02869
2.56,1.90134,1.08744,37.6848,36.7417,38.6338,1.02872
2.57,1.90332,1.08765,37.6658,36.7229,38.6146,1.02878
2.58,1.90504,1.08782,37.6468,36.7039,38.5955,1.02885
2.59,1.9068,1.08796,37.6277,36.685,38.5764,1.02891
2.6,1.90857,1.0881,37.6086,36.666,38.5573,1.02895
2.61,1.91032,1.08825,37.5895,36.647,38.5381,1.02898
2.62,1.91226,1.08844,37.5704,36.628,38.5189,1.02905
2.63,1.91408,1.08861,37.5513,36.609,38.4997,1.02911
2.64,1.9158,1.08877,37.5321,36.5899,38.4804,1.02916
2.65,1.91749,1.08889,37.513,36.5709,38.4612,1.02919
2.66,1.91918,1.08907,37.4938,36.5518,38.4419,1.02925
2.67,1.92081,1.08926,37.4746,36.5327,38.4226,1.02931
2.68,1.92249,1.0894,37.4554,36.5136,38.4034,1.02937
2.69,1.92414,1.08952,37.4361,36.4944,38.3841,1.02941
2.7,1.92578,1.0897,37.4169,36.4753,38.3647,1.02945
2.71,1.92731,1.0899,37.3976,36.4561,38.3453,1.02952
2.72,1.92894,1.09006,37.3783,36.437,38.326,1.02958
2.73,1.93066,1.09019,37.359,36.4177,38.3066,1.02962
2.74,1.93226,1.09031,37.3397,36.3985,38.2872,1.02965
2.75,1.93382,1.09052,37.3204,36.3793,38.2678,1.02972
2.76,1.93539,1.09068,37.3011,36.3601,38.2484,1.02978
2.77,1.93684,1.09084,37.2817,36.3408,38.229,1.02983
2.78,1.93832,1.09095,37.2623,36.3215,38.2095,1.02986
2.79,1.93981,1.09115,37.2429,36.3022,38.19,1.02992
2.8,1.94121,1.09132,37.2235,36.2829,38.1705,1.02998
2.81,1.94265,1.09144,37.2041,36.2636,38.1511,1.03003
2.82,1.94414,1.09155,37.1847,36.2442,38.1316,1.03005
2.83,1.94562,1.09175,37.1652,36.2249,38.112,1.03011
2.84,1.94699,1.09192,37.1458,36.2056,38.0925,1.03018
2.85,1.94833,1.09204,37.1263,36.1862,38.073,1.03022
2.86,1.94972,1.09214,37.1068,36.1668,38.0534,1.03025
2.87,1.95119,1.0923,37.0873,36.1473,38.0338,1.0303
2.88,1.95263,1.09247,37.0678,36.1279,38.0142,1.03036
2.89,1.95402,1.09259,37.0482,36.1085,37.9947,1.0304
2.9,1.95543,1.09269,37.0287,36.089,37.9751,1.03042
2.91,1.95693,1.09286,37.0091,36.0696,37.9554,1.03048
2.92,1.95831,1.09301,36.9896,36.0501,37.9358,1.03053
2.93,1.95954,1.09313,36.97,36.0306,37.9161,1.03057
2.94,1.96091,1.0932,36.9504,36.011,37.8965,1.03059
2.95,1.9623,1.09335,36.9308,35.9915,37.8768,1.03064
2.96,1.96359,1.09351,36.9111,35.972,37.8571,1.03069
2.97,1.96477,1.09362,36.8915,35.9524,37.8374,1.03073
2.98,1.96612,1.09368,36.8718,35.9328,37.8177,1.03074
2.99,1.96742,1.09383,36.8522,35.9132,37.798,1.0308
3,1.96876,1.09396,36.8325,35.8936,37.7783,1.03084
3.01,1.97005,1.09404,36.8128,35.874,37.7585,1.03087
3.02,1.97122,1.09413,36.7931,35.8544,37.7388,1.03089
3.03,1.97245,1.09428,36.7734,35.8347,37.719,1.03095
3.04,1.97369,1.09441,36.7536,35.8151,37.6992,1.03099
3.05,1.97492,1.09449,36.7339,35.7954,37.6794,1.03101
3.06,1.97618,1.09457,36.7141,35.7757,37.6596,1.03103
3.07,1.97746,1.09472,36.6944,35.756,37.6398,1.03109
3.08,1.97867,1.09482,36.6746,35.7363,37.6199,1.03111
3.09,1.97975,1.0949,36.6548,35.7166,37.6001,1.03113
3.1,1.9809,1.09501,36.635,35.6969,37.5803,1.03117
3.11,1.98199,1.09514,36.6152,35.6771,37.5604,1.03122
3.12,1.98311,1.09523,36.5954,35.6574,37.5405,1.03124
3.13,1.98444,1.09529,36.5755,35.6376,37.5207,1.03126
3.14,1.98562,1.09541,36.5557,35.6178,37.5007,1.03133
3.15,1.98672,1.09555,36.5358,35.598,37.4808,1.03136
3.16,1.98783,1.09561,36.5159,35.5782,37.4609,1.03137
3.17,1.98895,1.0957,36.4961,35.5584,37.441,1.03141
3.18,1.99004,1.09582,36.4762,35.5385,37.421,1.03144
3.19,1.99113,1.09591,36.4563,35.5187,37.4011,1.03147
3.2,1.99225,1.09597,36.4363,35.4988,37.3811,1.03149
3.21,1.99332,1.09608,36.4164,35.4789,37.3611,1.03152
3.22,1.99447,1.09622,36.3965,35.4591,37.3411,1.03157
3.23,1.99542,1.09632,36.3765,35.4392,37.3211,1.0316
3.24,1.9965,1.09637,36.3566,35.4193,37.3012,1.0316
3.25,1.99762,1.09649,36.3366,35.3994,37.2811,1.03166
3.26,1.99867,1.09661,36.3166,35.3795,37.2611,1.0317
3.27,1.99959,1.09669,36.2966,35.3596,37.2411,1.03172
3.28,2.00053,1.09678,36.2766,35.3396,37.221,1.03175
3.29,2.00148,1.09692,36.2566,35.3197,37.2009,1.0318
3.3,2.00249,1.09701,36.2366,35.2997,37.1809,1.03183
3.31,2.0035,1.09706,36.2166,35.2798,37.1608,1.03184
3.32,2.00454,1.09719,36.1965,35.2598,37.1407,1.03189
3.33,2.00551,1.0973,36.1765,35.2398,37.1206,1.03192
3.34,2.00634,1.0974,36.1564,35.2198,37.1005,1.03195
3.35,2.00722,1.09749,36.1364,35.1998,37.0804,1.03198
3.36,2.00807,1.09762,36.1163,35.1798,37.0602,1.03202
3.37,2.00903,1.09771,36.0962,35.1598,37.0401,1.03205
3.38,2.00996,1.09778,36.0761,35.1397,37.02,1.03206
3.39,2.01092,1.09789,36.056,35.1196,36.9998,1.03212
3.4,2.01172,1.09802,36.0359,35.0996,36.9796,1.03215
3.41,2.01265,1.0981,36.0158,35.0796,36.9595,1.03217
3.42,2.01351,1.09818,35.9956,35.0595,36.9393,1.0322
3.43,2.01435,1.0983,35.9755,35.0394,36.9191,1.03224
3.44,2.01526,1.09838,35.9553,35.0193,36.899,1.03226
3.45,2.01617,1.09844,35.9352,34.9992,36.8788,1.03227
3.46,2.01699,1.09856,35.915,34.9791,36.8585,1.03232
3.47,2.01787,1.09866,35.8948,34.959,36.8383,1.03236
3.48,2.01865,1.09873,35.8747,34.9389,36.8181,1.03237
3.49,2.01946,1.09881,35.8545,34.9188,36.7979,1.03241
3.5,2.02031,1.09891,35.8343,34.8986,36.7776,1.03245
3.51,2.02115,1.09899,35.8141,34.8785,36.7574,1.03247
3.52,2.02188,1.09906,35.7939,34.8583,36.7372,1.03247
3.53,2.02266,1.09916,35.7736,34.8381,36.7169,1.03253
3.54,2.0235,1.09925,35.7534,34.818,36.6966,1.03255
3.55,2.02429,1.0993,35.7332,34.7978,36.6764,1.03255
3.56,2.02516,1.09938,35.7129,34.7776,36.6561,1.03259
3.57,2.02603,1.09947,35.6927,34.7573,36.6357,1.03262
3.58,2.02687,1.09952,35.6724,34.7371,36.6155,1.03263
3.59,2.02756,1.09958,35.6521,34.7169,36.5952,1.03265
3.6,2.02828,1.09969,35.6318,34.6967,36.5748,1.03269
3.61,2.02897,1.09974,35.6116,34.6764,36.5545,1.0327
3.62,2.02988,1.09978,35.5913,34.6562,36.5342,1.03271
3.63,2.03078,1.09989,35.571,34.6359,36.5139,1.03276
3.64,2.0315,1.09994,35.5507,34.6157,36.4935,1.03278
3.65,2.0322,1.09999,35.5303,34.5954,36.4732,1.03278
3.66,2.03295,1.10009,35.51,34.5751,36.4528,1.03282
3.67,2.03366,1.10014,35.4897,34.5548,36.4325,1.03284
3.68,2.03434,1.10019,35.4693,34.5346,36.4121,1.03285
3.69,2.03513,1.10026,35.449,34.5142,36.3918,1.03287
3.7,2.03586,1.10033,35.4286,34.4939,36.3713,1.0329
3.71,2.03672,1.10039,35.4083,34.4736,36.351,1.03291
3.72,2.03745,1.10044,35.3879,34.4533,36.3306,1.03292
3.73,2.03811,1.10054,35.3675,34.4329,36.3101,1.03296
3.74,2.03881,1.10059,35.3471,34.4126,36.2897,1.03298
3.75,2.03948,1.10062,35.3268,34.3923,36.2693,1.03298
3.76,2.04021,1.10071,35.3064,34.3719,36.2489,1.03302
3.77,2.04079,1.10078,35.2859,34.3515,36.2284,1.03305
3.78,2.04143,1.10084,35.2655,34.3312,36.208,1.03305
3.79,2.04204,1.10092,35.2451,34.3108,36.1876,1.03308
3.8,2.04267,1.10099,35.2247,34.2904,36.1671,1.03311
