time,velocity,ratio,centerX,Xmax,Xmin,Ymax
0,0,1,11,10,12,1
0.01,0.0198278,1,10.9999,9.9999,11.9999,1
0.02,0.0394778,0.999993,10.9996,9.9996,11.9996,1
0.03,0.0588764,1,10.9991,9.99912,11.9991,0.999997
0.04,0.0780779,1.00001,10.9984,9.99844,11.9984,1
0.05,0.0970506,1.00003,10.9976,9.99759,11.9975,1.00001
0.06,0.115837,1.00006,10.9965,9.99655,11.9965,1.00001
0.07,0.13443,1.00008,10.9952,9.99532,11.9952,1.00002
0.08,0.152843,1.0001,10.9938,9.9939,11.9937,1.00002
0.09,0.171071,1.00012,10.9922,9.9923,11.9921,1.00001
0.1,0.189172,1.00017,10.9904,9.99053,11.9903,1.00004
0.11,0.207262,1.00024,10.9884,9.98859,11.9882,1.00006
0.12,0.22506,1.0003,10.9863,9.98649,11.986,1.00008
0.13,0.242629,1.00034,10.9839,9.98418,11.9837,1.0001
0.14,0.260072,1.00038,10.9814,9.98169,11.9812,1.00013
0.15,0.277309,1.00045,10.9787,9.97905,11.9785,1.00016
0.16,0.294368,1.00056,10.9759,9.97625,11.9755,1.00019
0.17,0.311304,1.00069,10.9728,9.97331,11.9724,1.00022
0.18,0.328088,1.00082,10.9696,9.97019,11.9691,1.00026
0.19,0.344717,1.00093,10.9663,9.96691,11.9656,1.00029
0.2,0.361122,1.001,10.9628,9.96343,11.9621,1.00032
0.21,0.377378,1.00115,10.9591,9.95983,11.9583,1.00037
0.22,0.393542,1.00135,10.9552,9.95611,11.9543,1.00043
0.23,0.409493,1.00155,10.9512,9.95224,11.9501,1.00048
0.24,0.425245,1.00168,10.947,9.94818,11.9459,1.00052
0.25,0.440908,1.00182,10.9427,9.94392,11.9415,1.00059
0.26,0.456592,1.00199,10.9382,9.93951,11.9369,1.00067
0.27,0.471965,1.00218,10.9336,9.93498,11.9321,1.00071
0.28,0.487024,1.00232,10.9288,9.93032,11.9272,1.00074
0.29,0.502134,1.00252,10.9238,9.92548,11.9221,1.00083
0.3,0.517123,1.00272,10.9187,9.9205,11.9169,1.0009
0.31,0.531878,1.00287,10.9135,9.91538,11.9115,1.00094
0.32,0.546621,1.00307,10.9081,9.91011,11.906,1.00102
0.33,0.561156,1.00328,10.9026,9.90473,11.9003,1.00107
0.34,0.575539,1.00344,10.8969,9.89919,11.8945,1.00111
0.35,0.589858,1.0036,10.8911,9.89344,11.8887,1.0012
0.36,0.604022,1.00377,10.8851,9.88758,11.8825,1.00124
0.37,0.61811,1.00398,10.879,9.88164,11.8763,1.0013
0.38,0.632068,1.00415,10.8727,9.87549,11.8699,1.00137
0.39,0.64586,1.0043,10.8663,9.86922,11.8634,1.0014
0.4,0.659672,1.00447,10.8598,9.86281,11.8569,1.00148
0.41,0.673309,1.00461,10.8532,9.85623,11.8501,1.00153
0.42,0.686813,1.00479,10.8464,9.84955,11.8432,1.00158
0.43,0.700169,1.00494,10.8394,9.84271,11.8361,1.00163
0.44,0.713396,1.0051,10.8324,9.83572,11.8289,1.00169
0.45,0.726566,1.00527,10.8252,9.82865,11.8216,1.00174
0.46,0.739539,1.00543,10.8178,9.82141,11.8142,1.00179
0.47,0.752367,1.00559,10.8104,9.81405,11.8066,1.00185
0.48,0.765174,1.00577,10.8028,9.8066,11.7989,1.0019
0.49,0.777847,1.00593,10.7951,9.799,11.7911,1.00197
0.5,0.790433,1.00609,10.7872,9.79126,11.7831,1.00201
0.51,0.802752,1.00629,10.7793,9.78342,11.7751,1.00208
0.52,0.8151,1.00645,10.7712,9.77543,11.7669,1.00214
0.53,0.82736,1.00667,10.763,9.76737,11.7585,1.00221
0.54,0.839555,1.00685,10.7546,9.75915,11.7501,1.00227
0.55,0.851642,1.00706,10.7462,9.75084,11.7415,1.00234
0.56,0.863551,1.00725,10.7376,9.74236,11.7328,1.00241
0.57,0.875439,1.00744,10.7289,9.73384,11.724,1.00246
0.58,0.887121,1.00767,10.7201,9.72516,11.715,1.00254
0.59,0.898732,1.00785,10.7112,9.71639,11.7059,1.00258
0.6,0.910291,1.00811,10.7021,9.70749,11.6967,1.00268
0.61,0.921671,1.00829,10.693,9.69848,11.6875,1.00275
0.62,0.932972,1.00854,10.6837,9.68935,11.678,1.00283
0.63,0.944221,1.00876,10.6743,9.68011,11.6685,1.00291
0.64,0.955313,1.00895,10.6648,9.67077,11.6589,1.00296
0.65,0.966453,1.0092,10.6552,9.66128,11.6491,1.00306
0.66,0.977395,1.00939,10.6455,9.65173,11.6393,1.00312
0.67,0.988262,1.00962,10.6357,9.64202,11.6293,1.00319
0.68,0.998926,1.00987,10.6257,9.63224,11.6192,1.00328
0.69,1.00965,1.01004,10.6157,9.62233,11.609,1.00333
0.7,1.02023,1.01029,10.6055,9.61234,11.5987,1.00341
0.71,1.03073,1.0105,10.5953,9.60223,11.5883,1.00349
0.72,1.0411,1.01068,10.5849,9.59198,11.5778,1.00353
0.73,1.05142,1.01091,10.5745,9.58166,11.5672,1.00362
0.74,1.0617,1.01109,10.5639,9.57123,11.5566,1.00369
0.75,1.07189,1.01127,10.5532,9.56069,11.5458,1.00373
0.76,1.08191,1.0115,10.5425,9.55006,11.5349,1.00381
0.77,1.09196,1.01168,10.5316,9.53933,11.5239,1.00389
0.78,1.10192,1.01186,10.5206,9.52849,11.5128,1.00394
0.79,1.11184,1.01206,10.5095,9.51755,11.5016,1.00399
0.8,1.12175,1.01226,10.4984,9.50652,11.4904,1.00408
0.81,1.13136,1.01241,10.4871,9.49537,11.479,1.00414
0.82,1.14093,1.01261,10.4758,9.48417,11.4675,1.00418
0.83,1.15047,1.01282,10.4643,9.47283,11.4559,1.00426
0.84,1.16004,1.01302,10.4527,9.46143,11.4443,1.00433
0.85,1.16939,1.01321,10.4411,9.44992,11.4325,1.00438
0.86,1.17864,1.01339,10.4294,9.43831,11.4206,1.00443
0.87,1.18787,1.0136,10.4175,9.42659,11.4087,1.00452
0.88,1.19703,1.01381,10.4056,9.41483,11.3966,1.00459
0.89,1.20616,1.01401,10.3936,9.40294,11.3845,1.00465
0.9,1.21527,1.0142,10.3815,9.39094,11.3722,1.0047
0.91,1.22414,1.01441,10.3693,9.37886,11.3599,1.00478
0.92,1.23298,1.01462,10.357,9.36675,11.3475,1.00486
0.93,1.2417,1.01482,10.3446,9.3545,11.335,1.00493
0.94,1.25036,1.01503,10.3322,9.34216,11.3224,1.00499
0.95,1.25895,1.01523,10.3196,9.32974,11.3097,1.00505
0.96,1.26752,1.01545,10.307,9.31726,11.2969,1.00512
0.97,1.27599,1.01565,10.2943,9.30468,11.2841,1.0052
0.98,1.28442,1.01585,10.2815,9.29201,11.2712,1.00528
0.99,1.29274,1.01607,10.2686,9.27927,11.2582,1.00535
1,1.30113,1.0163,10.2556,9.26645,11.245,1.00541
1.01,1.30927,1.0165,10.2426,9.25356,11.2318,1.00546
1.02,1.31743,1.0167,10.2294,9.24058,11.2186,1.00555
1.03,1.32546,1.01691,10.2162,9.22751,11.2053,1.00563
1.04,1.33341,1.01711,10.2029,9.21435,11.1919,1.0057
1.05,1.34121,1.01734,10.1896,9.20112,11.1784,1.00577
1.06,1.34902,1.01753,10.1761,9.1878,11.1648,1.00583
1.07,1.35683,1.01773,10.1626,9.17442,11.1511,1.00589
1.08,1.3647,1.01791,10.149,9.16095,11.1374,1.00594
1.09,1.37249,1.0181,10.1353,9.14739,11.1237,1.00602
1.1,1.37999,1.01831,10.1215,9.13378,11.1098,1.00609
1.11,1.38729,1.0185,10.1077,9.12007,11.0958,1.00615
1.12,1.39475,1.01871,10.0938,9.10631,11.0818,1.00622
1.13,1.40211,1.01891,10.0798,9.09246,11.0677,1.00628
1.14,1.40942,1.01909,10.0657,9.0785,11.0535,1.00634
1.15,1.41665,1.01925,10.0516,9.06449,11.0393,1.00639
1.16,1.42392,1.01942,10.0374,9.05041,11.0249,1.00645
1.17,1.43109,1.01958,10.0231,9.03624,11.0106,1.0065
1.18,1.43866,1.01975,10.0088,9.022,10.9961,1.00656
1.19,1.44575,1.01994,9.99436,9.0077,10.9816,1.00663
1.2,1.45272,1.02011,9.97987,8.99332,10.967,1.00669
1.21,1.45964,1.0203,9.9653,8.9789,10.9523,1.00675
1.22,1.46651,1.02047,9.95067,8.9644,10.9376,1.00681
1.23,1.47329,1.02065,9.93597,8.94982,10.9228,1.00687
1.24,1.48,1.02081,9.92121,8.93516,10.908,1.00693
1.25,1.48664,1.02099,9.90638,8.92045,10.893,1.00699
1.26,1.49333,1.02117,9.89148,8.90567,10.878,1.00705
1.27,1.49987,1.02135,9.87651,8.89083,10.8629,1.00711
1.28,1.50634,1.02151,9.86148,8.87592,10.8478,1.00717
1.29,1.51272,1.0217,9.84639,8.86096,10.8326,1.00722
1.3,1.51927,1.02187,9.83123,8.84593,10.8174,1.00728
1.31,1.52563,1.02205,9.816,8.83084,10.802,1.00733
1.32,1.53201,1.02221,9.80072,8.81567,10.7867,1.00739
1.33,1.53832,1.02239,9.78537,8.80044,10.7712,1.00745
1.34,1.54452,1.02257,9.76995,8.78515,10.7557,1.00751
1.35,1.55077,1.02276,9.75448,8.7698,10.7401,1.00756
1.36,1.55676,1.02293,9.73894,8.75437,10.7244,1.00762
1.37,1.5628,1.02311,9.72334,8.73889,10.7087,1.00768
1.38,1.56873,1.02328,9.70768,8.72334,10.693,1.00774
1.39,1.57446,1.02346,9.69197,8.70774,10.6771,1.0078
1.4,1.58027,1.02362,9.6762,8.69208,10.6613,1.00786
1.41,1.58615,1.0238,9.66036,8.67637,10.6453,1.00792
1.42,1.59199,1.02397,9.64447,8.66059,10.6294,1.00798
1.43,1.59762,1.02415,9.62853,8.64476,10.6133,1.00804
1.44,1.60321,1.02431,9.61252,8.62888,10.5972,1.0081
1.45,1.60877,1.02448,9.59646,8.61294,10.5811,1.00815
1.46,1.61425,1.02465,9.58035,8.59695,10.5649,1.00821
1.47,1.61985,1.02482,9.56418,8.5809,10.5486,1.00826
1.48,1.62532,1.02498,9.54795,8.56479,10.5323,1.00832
1.49,1.63088,1.02513,9.53167,8.54862,10.5159,1.00837
1.5,1.63625,1.02529,9.51534,8.53239,10.4995,1.00842
1.51,1.6417,1.02545,9.49895,8.51612,10.483,1.00847
1.52,1.64699,1.02559,9.4825,8.49976,10.4665,1.00852
1.53,1.65222,1.02574,9.46601,8.48338,10.4499,1.00857
1.54,1.65742,1.02588,9.44946,8.46693,10.4333,1.00862
1.55,1.66254,1.02601,9.43286,8.45043,10.4166,1.00866
1.56,1.66767,1.02613,9.41621,8.43387,10.3999,1.0087
1.57,1.6728,1.02625,9.39951,8.41726,10.3831,1.00874
1.58,1.67781,1.0264,9.38276,8.4006,10.3663,1.00879
1.59,1.68278,1.02654,9.36595,8.38389,10.3494,1.00885
1.6,1.68774,1.02668,9.3491,8.36712,10.3325,1.0089
1.61,1.69263,1.02683,9.3322,8.35033,10.3155,1.00895
1.62,1.69758,1.02698,9.31525,8.33347,10.2984,1.009
1.63,1.70235,1.02712,9.29825,8.31656,10.2814,1.00904
1.64,1.70745,1.02726,9.2812,8.29962,10.2642,1.00908
1.65,1.71226,1.02739,9.2641,8.28262,10.2471,1.00913
1.66,1.71691,1.02753,9.24696,8.26558,10.2298,1.00917
1.67,1.72149,1.02766,9.22977,8.24848,10.2126,1.00921
1.68,1.72605,1.02779,9.21253,8.23135,10.1953,1.00924
1.69,1.7305,1.02792,9.19525,8.21418,10.1779,1.0093
1.7,1.73499,1.02806,9.17792,8.19695,10.1606,1.00936
1.71,1.73945,1.02821,9.16055,8.17966,10.1431,1.00941
1.72,1.74383,1.02837,9.14313,8.16235,10.1256,1.00947
1.73,1.74806,1.02853,9.12567,8.14498,10.108,1.00952
1.74,1.75233,1.02868,9.10817,8.12759,10.0904,1.00957
1.75,1.75652,1.02882,9.09063,8.11015,10.0728,1.00961
1.76,1.76079,1.02896,9.07304,8.09266,10.0551,1.00965
1.77,1.7649,1.02909,9.05541,8.07513,10.0374,1.00968
1.78,1.76916,1.02924,9.03774,8.05756,10.0197,1.00974
1.79,1.7733,1.02937,9.02003,8.03994,10.0019,1.00979
1.8,1.77746,1.02953,9.00228,8.02227,9.98402,1.00984
1.81,1.7815,1.02966,8.98448,8.00457,9.96615,1.00988
1.82,1.78555,1.02979,8.96665,7.98682,9.94824,1.00993
1.83,1.78964,1.02991,8.94877,7.96904,9.9303,1.00996
1.84,1.79369,1.03001,8.93086,7.95121,9.91235,1.00999
1.85,1.7976,1.03012,8.9129,7.93333,9.89435,1.01005
1.86,1.80152,1.03024,8.8949,7.91542,9.87631,1.0101
1.87,1.8054,1.03037,8.87687,7.89746,9.8582,1.01014
1.88,1.80924,1.03049,8.8588,7.87947,9.84006,1.01018
1.89,1.813,1.0306,8.84069,7.86144,9.82188,1.01021
1.9,1.81678,1.0307,8.82254,7.84339,9.80367,1.01023
1.91,1.82046,1.0308,8.80435,7.82529,9.78545,1.01027
1.92,1.82425,1.03092,8.78613,7.80715,9.76719,1.01032
1.93,1.82796,1.03104,8.76787,7.78899,9.74886,1.01036
1.94,1.83178,1.03116,8.74957,7.77077,9.73048,1.01039
1.95,1.83536,1.03127,8.73124,7.75251,9.71207,1.01042
1.96,1.83894,1.03137,8.71286,7.73422,9.69363,1.01044
1.97,1.84254,1.03148,8.69446,7.71587,9.67518,1.01049
1.98,1.84601,1.0316,8.67601,7.69752,9.6567,1.01055
1.99,1.8495,1.03173,8.65754,7.67912,9.63813,1.01059
2,1.85287,1.03184,8.63903,7.66068,9.61954,1.01061
2.01,1.85626,1.03192,8.62048,7.6422,9.60095,1.01064
2.02,1.85954,1.03202,8.6019,7.62367,9.58231,1.01068
2.03,1.86292,1.03213,8.58329,7.60512,9.56366,1.01073
2.04,1.86624,1.03227,8.56465,7.58657,9.54494,1.01078
2.05,1.86964,1.0324,8.54597,7.56798,9.52616,1.01081
2.06,1.87287,1.03249,8.52725,7.54934,9.50738,1.01083
2.07,1.87608,1.03259,8.50851,7.53067,9.48858,1.01086
2.08,1.8793,1.03268,8.48973,7.51195,9.4698,1.01091
2.09,1.88247,1.03281,8.47092,7.49323,9.45091,1.01096
2.1,1.88552,1.03294,8.45208,7.47449,9.43198,1.01099
2.11,1.88869,1.03304,8.43321,7.4557,9.41306,1.01101
2.12,1.8918,1.03314,8.41431,7.43687,9.39411,1.01105
2.13,1.89485,1.03322,8.39538,7.41799,9.37517,1.0111
2.14,1.89789,1.03334,8.37642,7.39912,9.35614,1.01114
2.15,1.90086,1.03347,8.35742,7.38022,9.33706,1.01117
2.16,1.90392,1.03356,8.3384,7.36126,9.31797,1.01118
2.17,1.90683,1.03366,8.31935,7.34227,9.29888,1.01123
2.18,1.90987,1.03375,8.30026,7.32324,9.27977,1.01128
2.19,1.91273,1.03388,8.28115,7.30422,9.26056,1.01131
2.2,1.91559,1.03398,8.26201,7.28516,9.24133,1.01133
2.21,1.91843,1.03406,8.24284,7.26605,9.22213,1.01136
2.22,1.92121,1.03415,8.22364,7.2469,9.20291,1.0114
2.23,1.92405,1.03425,8.20442,7.22774,9.18362,1.01144
2.24,1.9268,1.03437,8.18516,7.20858,9.16428,1.01146
2.25,1.92959,1.03445,8.16588,7.18935,9.14493,1.01148
2.26,1.93229,1.03453,8.14657,7.1701,9.12562,1.01153
2.27,1.93493,1.0346,8.12724,7.1508,9.10627,1.01157
2.28,1.93762,1.03472,8.10787,7.13154,9.08683,1.01159
2.29,1.94027,1.0348,8.08848,7.1122,9.06736,1.0116
2.3,1.94302,1.03489,8.06907,7.09284,9.04793,1.01165
2.31,1.94575,1.03495,8.04962,7.07344,9.02849,1.01169
2.32,1.94827,1.03506,8.03015,7.05405,9.00893,1.01171
2.33,1.95095,1.03514,8.01066,7.03462,8.98936,1.01171
2.34,1.95351,1.03523,7.99114,7.01517,8.96983,1.01176
2.35,1.95604,1.03528,7.97159,6.99565,8.95027,1.0118
2.36,1.95845,1.03539,7.95202,6.97616,8.93061,1.01182
2.37,1.96098,1.03548,7.93242,6.95663,8.91094,1.01182
2.38,1.96341,1.03558,7.9128,6.93706,8.89128,1.01187
2.39,1.96597,1.03562,7.89315,6.91744,8.87165,1.01191
2.4,1.96835,1.03571,7.87348,6.89783,8.85191,1.01193
2.41,1.97074,1.03579,7.85379,6.8782,8.83213,1.01193
2.42,1.97299,1.03588,7.83407,6.85853,8.81239,1.01198
2.43,1.97535,1.03593,7.81433,6.83882,8.79265,1.01202
2.44,1.97775,1.03604,7.79456,6.81914,8.7728,1.01204
2.45,1.98002,1.03613,7.77477,6.79941,8.75292,1.01205
2.46,1.98241,1.03621,7.75496,6.77965,8.7331,1.0121
2.47,1.98464,1.03627,7.73513,6.75986,8.71327,1.01213
2.48,1.98689,1.03638,7.71527,6.74008,8.6933,1.01214
2.49,1.98911,1.03648,7.69539,6.72026,8.67334,1.01217
2.5,1.99129,1.03654,7.67549,6.70041,8.65347,1.01221
2.51,1.99341,1.03662,7.65556,6.68054,8.6335,1.01224
2.52,1.99555,1.03672,7.63562,6.66068,8.61346,1.01224
2.53,1.99768,1.03681,7.61565,6.64077,8.59348,1.01229
2.54,1.9998,1.03685,7.59567,6.62081,8.57351,1.01233
2.55,2.00196,1.03695,7.57566,6.60087,8.55342,1.01234
2.56,2.00409,1.03704,7.55563,6.5809,8.5333,1.01236
2.57,2.00627,1.03712,7.53558,6.5609,8.51324,1.0124
2.58,2.00833,1.03717,7.5155,6.54086,8.49315,1.01243
2.59,2.01038,1.03726,7.49541,6.52084,8.47297,1.01243
2.6,2.01246,1.03735,7.4753,6.50077,8.4528,1.01247
2.61,2.0143,1.03739,7.45516,6.48067,8.43268,1.0125
2.62,2.01631,1.03746,7.43501,6.46058,8.41247,1.01251
2.63,2.01836,1.03755,7.41484,6.44046,8.39222,1.01252
2.64,2.02035,1.03763,7.39464,6.42033,8.37203,1.01257
2.65,2.02225,1.03766,7.37443,6.40014,8.35183,1.01259
2.66,2.02436,1.03773,7.3542,6.37998,8.33151,1.01258
2.67,2.02616,1.03783,7.33395,6.35977,8.31122,1.01263
2.68,2.02805,1.03786,7.31368,6.33952,8.29098,1.01266
2.69,2.02997,1.03793,7.29339,6.3193,8.27062,1.01267
2.7,2.03185,1.03802,7.27308,6.29904,8.25024,1.01269
2.71,2.0337,1.03806,7.25275,6.27874,8.22993,1.01273
2.72,2.03557,1.03811,7.2324,6.25844,8.20956,1.01273
2.73,2.03728,1.03819,7.21204,6.23813,8.18909,1.01274
2.74,2.03907,1.03827,7.19166,6.21779,8.1687,1.01278
2.75,2.04082,1.0383,7.17126,6.19742,8.1483,1.0128
2.76,2.04256,1.03838,7.15084,6.17707,8.1278,1.01279
2.77,2.04428,1.03847,7.13041,6.15668,8.10732,1.01284
2.78,2.04605,1.0385,7.10996,6.13626,8.08691,1.01287
2.79,2.04767,1.03856,7.08949,6.11584,8.06637,1.01287
2.8,2.04941,1.03865,7.069,6.0954,8.04582,1.01291
2.81,2.0512,1.03869,7.0485,6.07493,8.02534,1.01294
2.82,2.05297,1.03874,7.02798,6.05444,8.00477,1.01294
2.83,2.05469,1.03884,7.00744,6.03395,7.98414,1.01296
2.84,2.05642,1.03889,6.98689,6.01345,7.96361,1.013
2.85,2.05799,1.03892,6.96631,5.99289,7.943,1.013
2.86,2.05953,1.03902,6.94573,5.97237,7.92232,1.01302
2.87,2.06111,1.03908,6.92512,5.95182,7.90173,1.01306
2.88,2.06273,1.03911,6.9045,5.93122,7.8811,1.01307
2.89,2.06424,1.0392,6.88387,5.91066,7.86037,1.01307
2.9,2.06584,1.03927,6.86322,5.89006,7.83973,1.01312
2.91,2.06718,1.03929,6.84256,5.86941,7.81908,1.01314
2.92,2.06874,1.03938,6.82188,5.84879,7.7983,1.01314
2.93,2.07029,1.03946,6.80118,5.82814,7.77759,1.01319
2.94,2.07177,1.03948,6.78047,5.80744,7.75689,1.0132
2.95,2.0733,1.03955,6.75975,5.78678,7.73607,1.01319
2.96,2.07493,1.03963,6.73901,5.76607,7.71531,1.01324
2.97,2.07637,1.03965,6.71825,5.74533,7.69456,1.01326
2.98,2.07776,1.03972,6.69748,5.72462,7.67369,1.01324
2.99,2.0792,1.03981,6.67669,5.70388,7.65288,1.01329
3,2.0806,1.03982,6.6559,5.6831,7.63211,1.01331
3.01,2.08199,1.03989,6.63508,5.66235,7.61122,1.0133
3.02,2.08355,1.03996,6.61426,5.64156,7.59038,1.01335
3.03,2.08479,1.03998,6.59341,5.62074,7.56957,1.01337
3.04,2.08627,1.04003,6.57256,5.59993,7.54864,1.01336
3.05,2.08768,1.04011,6.55169,5.57909,7.52774,1.0134
3.06,2.0891,1.04012,6.53081,5.55822,7.50688,1.01342
3.07,2.0905,1.04017,6.50991,5.53736,7.4859,1.01341
3.08,2.09189,1.04024,6.489,5.51648,7.46497,1.01345
3.09,2.09308,1.04026,6.46807,5.49558,7.44406,1.01346
3.1,2.09448,1.04032,6.44713,5.47469,7.42304,1.01345
3.11,2.09593,1.0404,6.42618,5.45378,7.40207,1.01349
3.12,2.09726,1.04041,6.40522,5.43284,7.38112,1.01351
3.13,2.09849,1.04048,6.38424,5.41192,7.36006,1.0135
3.14,2.0998,1.04054,6.36325,5.39097,7.33908,1.01354
3.15,2.10099,1.04055,6.34224,5.36998,7.31809,1.01356
3.16,2.1022,1.04062,6.32123,5.34901,7.297,1.01356
3.17,2.10341,1.04069,6.3002,5.32802,7.27596,1.0136
3.18,2.10465,1.0407,6.27916,5.30697,7.25491,1.01361
3.19,2.10602,1.04077,6.25811,5.28596,7.23377,1.01361
3.2,2.10727,1.04082,6.23704,5.26493,7.21272,1.01365
3.21,2.10836,1.04083,6.21596,5.24385,7.19162,1.01365
3.22,2.10958,1.04092,6.19487,5.22282,7.17045,1.01366
3.23,2.11073,1.04098,6.17377,5.20177,7.14935,1.01369
3.24,2.11187,1.04099,6.15266,5.18067,7.12821,1.01369
3.25,2.1131,1.04108,6.13154,5.1596,7.10703,1.01371
3.26,2.11429,1.04111,6.1104,5.13851,7.08593,1.01374
3.27,2.11531,1.04112,6.08925,5.11737,7.06475,1.01373
3.28,2.11643,1.04121,6.06809,5.09626,7.04355,1.01377
3.29,2.11762,1.04125,6.04692,5.07512,7.02239,1.01379
3.3,2.11878,1.04126,6.02574,5.05395,7.00115,1.01378
3.31,2.11987,1.04135,6.00455,5.03279,6.97992,1.01382
3.32,2.12099,1.04137,5.98334,5.01162,6.95873,1.01383
3.33,2.12194,1.04141,5.96213,4.99044,6.93746,1.01383
3.34,2.12298,1.04148,5.9409,4.96925,6.91621,1.01386
3.35,2.12417,1.04151,5.91967,4.94805,6.89497,1.01387
3.36,2.1252,1.04157,5.89842,4.92684,6.87366,1.01387
3.37,2.12619,1.04162,5.87717,4.90563,6.85241,1.01391
3.38,2.12724,1.04163,5.8559,4.88438,6.83113,1.0139
3.39,2.12816,1.04169,5.83462,4.86313,6.80982,1.01392
3.4,2.12913,1.04172,5.81334,4.84188,6.78855,1.01395
3.41,2.13028,1.04174,5.79204,4.82059,6.7672,1.01393
3.42,2.13131,1.0418,5.77073,4.7993,6.74587,1.01397
3.43,2.13241,1.04182,5.74941,4.77801,6.72456,1.01398
3.44,2.13347,1.04185,5.72809,4.75669,6.70317,1.01397
3.45,2.13432,1.0419,5.70675,4.73537,6.68183,1.014
3.46,2.13528,1.04191,5.6854,4.71405,6.66049,1.01401
3.47,2.13627,1.04197,5.66404,4.69273,6.63907,1.01401
3.48,2.13724,1.04201,5.64267,4.6714,6.61771,1.01404
3.49,2.13831,1.04201,5.6213,4.65004,6.59633,1.01403
3.5,2.13924,1.04207,5.59991,4.62868,6.57491,1.01405
3.51,2.14009,1.04209,5.57851,4.60732,6.55354,1.01407
3.52,2.14099,1.04211,5.55711,4.58592,6.53209,1.01405
3.53,2.1419,1.04217,5.53569,4.56453,6.51066,1.0141
3.54,2.14281,1.0422,5.51427,4.54313,6.48923,1.0141
3.55,2.14375,1.04223,5.49284,4.52172,6.46773,1.0141
3.56,2.14464,1.04227,5.4714,4.5003,6.4463,1.01413
3.57,2.14546,1.0423,5.44995,4.47887,6.42482,1.01413
3.58,2.14657,1.04236,5.42849,4.45745,6.40331,1.01414
3.59,2.14743,1.04239,5.40702,4.43602,6.38186,1.01417
3.6,2.14827,1.04242,5.38554,4.41456,6.36032,1.01415
3.61,2.14912,1.04249,5.36405,4.39311,6.33882,1.01419
3.62,2.1498,1.0425,5.34256,4.37164,6.31736,1.0142
3.63,2.1506,1.04255,5.32106,4.35016,6.29578,1.0142
3.64,2.1513,1.04259,5.29955,4.32867,6.27428,1.01424
3.65,2.15209,1.0426,5.27803,4.30716,6.25275,1.01423
3.66,2.15292,1.04267,5.25651,4.28567,6.23116,1.01425
3.67,2.15381,1.04269,5.23497,4.26417,6.20966,1.01427
3.68,2.15448,1.04269,5.21343,4.24263,6.18807,1.01425
3.69,2.15525,1.04277,5.19188,4.22112,6.16649,1.01429
3.7,2.156,1.0428,5.17033,4.19961,6.14495,1.0143
3.71,2.15683,1.04284,5.14876,4.17807,6.12332,1.0143
3.72,2.15753,1.04289,5.12719,4.15654,6.10176,1.01433
3.73,2.15834,1.0429,5.10561,4.13497,6.08017,1.01432
3.74,2.15898,1.04294,5.08403,4.11341,6.05856,1.01434
3.75,2.1598,1.04296,5.06243,4.09184,6.037,1.01436
3.76,2.16055,1.04298,5.04083,4.07024,6.01533,1.01434
3.77,2.16136,1.04302,5.01922,4.04864,5.99372,1.01438
3.78,2.16214,1.04302,4.99761,4.02704,5.97211,1.01438
3.79,2.1629,1.04307,4.97598,4.00544,5.95043,1.01438
3.8,2.1635,1.04309,4.95435,3.98384,5.92882,1.0144
3.81,2.16427,1.0431,4.93271,3.9622,5.90715,1.01438
