time,velocity,ratio,centerX,Xmax,Xmin,Ymax
0,0,1,1.75,0.75,2.75,1
0.01,0.0186012,1.00006,1.74991,0.749953,2.74986,1.00001
0.02,0.0369781,1.00014,1.74963,0.749722,2.74954,1.00005
0.03,0.0551375,1.00018,1.74917,0.749289,2.74905,1.00006
0.04,0.0722705,1.00012,1.74853,0.748607,2.74845,1.00004
0.05,0.0885152,1.00006,1.74773,0.747756,2.74768,1.00002
0.06,0.104414,1.00002,1.74676,0.746772,2.74674,1.00001
0.07,0.12037,1.00007,1.74564,0.745699,2.74558,1.00001
0.08,0.135935,1.00012,1.74436,0.744458,2.74425,1.00002
0.09,0.151867,1.00011,1.74292,0.743031,2.74281,1
0.1,0.169952,0.999995,1.74132,0.741359,2.74131,0.999971
0.11,0.192856,0.99996,1.73951,0.739514,2.73961,1.00001
0.12,0.21791,1.00018,1.73745,0.737627,2.73739,1.00006
0.13,0.242286,1.00034,1.73515,0.735413,2.73499,1.00013
0.14,0.261716,1.00034,1.73263,0.732889,2.73238,1.00008
0.15,0.278347,1.00003,1.72993,0.729924,2.72992,1.00003
0.16,0.293206,0.999858,1.72707,0.72705,2.72712,0.999894
0.17,0.31269,0.999805,1.72405,0.72391,2.72421,0.999956
0.18,0.339242,1.00022,1.72079,0.720992,2.72075,1.0001
0.19,0.359965,1.00064,1.71728,0.717772,2.71692,1.00021
0.2,0.374424,1.00047,1.71361,0.713905,2.71325,1.00014
0.21,0.388875,0.999948,1.7098,0.70985,2.7098,0.999923
0.22,0.412289,0.999541,1.7058,0.705543,2.7063,0.99992
0.23,0.434429,1.00003,1.70156,0.701627,2.70153,0.999985
0.24,0.450715,1.00049,1.69713,0.697418,2.69678,1.00016
0.25,0.466249,1.00059,1.69256,0.693069,2.69222,1.00016
0.26,0.490924,1.00022,1.68777,0.687929,2.68776,1.00013
0.27,0.504931,1.00003,1.68279,0.682848,2.68263,0.999919
0.28,0.518234,0.99977,1.67767,0.677447,2.67781,0.999951
0.29,0.541214,1.00011,1.67238,0.67261,2.67248,1.00005
0.3,0.556057,1.00059,1.66689,0.667295,2.66637,1.00013
0.31,0.569869,1.00051,1.66127,0.661514,2.66087,1.00019
0.32,0.591269,1.00022,1.65546,0.655751,2.65554,1.00012
0.33,0.601611,0.999976,1.6495,0.649502,2.6494,0.999925
0.34,0.619499,0.999789,1.6434,0.643073,2.64344,0.999974
0.35,0.638692,1.00025,1.6371,0.637527,2.63721,1.00009
0.36,0.649784,1.00061,1.63066,0.631105,2.6302,1.00016
0.37,0.668567,1.00049,1.62406,0.62426,2.62373,1.00023
0.38,0.678391,1.00029,1.61733,0.617835,2.61714,0.99994
0.39,0.695513,0.999627,1.61047,0.610071,2.61099,1.00008
0.4,0.710809,1.00019,1.60343,0.60371,2.60302,0.999847
0.41,0.72487,1.00016,1.59626,0.59633,2.59644,1.00022
0.42,0.737139,1.00084,1.58894,0.589615,2.58816,1.00012
0.43,0.749129,1.00041,1.58152,0.581722,2.5814,1.00024
0.44,0.765233,1.0003,1.57393,0.574226,2.57365,1.00002
0.45,0.77619,0.999899,1.56623,0.566293,2.56643,0.999965
0.46,0.792876,0.999984,1.55838,0.558303,2.55845,1.00006
0.47,0.802763,1.0005,1.5504,0.550924,2.55003,1.00006
0.48,0.815652,1.00057,1.5423,0.542552,2.54202,1.00031
0.49,0.825214,1.00074,1.5341,0.534934,2.53349,1.00002
0.5,0.838227,0.999986,1.52578,0.525433,2.52589,1.00021
0.51,0.84962,1.0003,1.51735,0.517985,2.51699,0.999803
0.52,0.861221,0.999867,1.50878,0.50833,2.50906,1.00023
0.53,0.87634,1.00083,1.5001,0.501043,2.49932,0.999967
0.54,0.879284,1.00031,1.49133,0.491142,2.49134,1.00041
0.55,0.888249,1.00083,1.48248,0.483328,2.48163,0.999979
0.56,0.896311,0.999894,1.47357,0.473278,2.47393,1.00022
0.57,0.907912,1.00037,1.46454,0.464994,2.46393,0.999841
0.58,0.917702,0.999968,1.45543,0.455264,2.4558,1.00024
0.59,0.927142,1.00086,1.44619,0.446976,2.44536,1.00005
0.6,0.935907,1.00051,1.43688,0.437032,2.43678,1.00038
0.61,0.941809,1.00072,1.42749,0.42828,2.4269,1.00003
0.62,0.950518,0.999963,1.41803,0.417854,2.41833,1.0002
0.63,0.960846,1.00031,1.40848,0.408942,2.40814,0.999912
0.64,0.96661,1.00028,1.39883,0.399018,2.39878,1.00016
0.65,0.976335,1.0007,1.38912,0.389707,2.38868,1.00019
0.66,0.980052,1.00067,1.37934,0.379874,2.37901,1.00023
0.67,0.987672,1.00056,1.36949,0.369855,2.36908,1.00017
0.68,0.995244,1.00038,1.35959,0.360195,2.35948,1.00002
0.69,1.00102,1.0001,1.34961,0.349476,2.34953,1.00013
0.7,1.00658,1.00052,1.33956,0.340077,2.33925,1.00011
0.71,1.01271,1.00066,1.32947,0.3301,2.32933,1.00027
0.72,1.01374,1.00094,1.31934,0.319984,2.31837,1.00014
0.73,1.01959,1.00036,1.30917,0.309394,2.3093,1.00031
0.74,1.02462,1.00054,1.29896,0.299685,2.29866,1.00003
0.75,1.02842,1.00024,1.28869,0.288455,2.28831,1.00017
0.76,1.03334,1.00074,1.27837,0.279337,2.27801,1.00008
0.77,1.03585,1.0005,1.26803,0.268333,2.268,1.00034
0.78,1.03729,1.00099,1.25766,0.258231,2.25655,1.00014
0.79,1.03963,1.00057,1.24728,0.248004,2.24739,1.00027
0.8,1.04371,1.00052,1.23687,0.237321,2.23643,1.00007
0.81,1.04411,1.00038,1.22643,0.226454,2.22602,1.00017
0.82,1.04904,1.00072,1.21595,0.216961,2.21587,1.00018
0.83,1.04844,1.0008,1.20547,0.205966,2.20483,1.00024
0.84,1.04665,1.00089,1.19499,0.195594,2.19429,1.00024
0.85,1.04628,1.00076,1.18452,0.185578,2.18453,1.00024
0.86,1.04685,1.00052,1.17407,0.174255,2.17356,1.00018
0.87,1.04379,1.00075,1.16361,0.164362,2.16307,1.0001
0.88,1.04563,1.00068,1.15316,0.15402,2.15326,1.0003
0.89,1.04137,1.001,1.14273,0.143358,2.14178,1.00021
0.9,1.03386,1.001,1.13235,0.133304,2.13197,1.00033
0.91,1.03093,1.00105,1.12202,0.123271,2.12166,1.00024
0.92,1.02409,1.00077,1.11176,0.112189,2.11115,1.00025
0.93,1.01787,1.00094,1.10154,0.102711,2.1012,1.00019
0.94,1.01254,1.00093,1.09139,0.0923909,2.09111,1.00029
0.95,1.00261,1.00117,1.08132,0.0822407,2.0805,1.00029
0.96,0.98835,1.00142,1.07135,0.073001,2.07088,1.00035
0.97,0.977035,1.00137,1.06153,0.062889,2.0609,1.00037
0.98,0.959365,1.00143,1.05185,0.0533258,2.05107,1.0003
0.99,0.944276,1.00137,1.04232,0.0440068,2.04207,1.0004
1,0.925632,1.00168,1.03298,0.0349048,2.03212,1.00029
1.01,0.89935,1.00209,1.02385,0.0264294,2.02311,1.00043
1.02,0.870724,1.00261,1.01499,0.0183403,2.01419,1.00053
1.03,0.827432,1.00343,1.00649,0.0110143,2.00533,1.00058
1.04,0.774392,1.0045,0.998463,0.00492788,1.99755,1.0008
1.05,0.69891,1.0062,0.99108,5.33378e-09,1.98938,1.00086
1.06,0.594825,1.01003,0.98456,9.05343e-09,1.98265,1.00126
1.07,0.428044,1.01388,0.979399,2.83862e-09,1.9764,1.00191
1.08,0.22579,1.01739,0.976109,-0,1.97129,1.00278
1.09,0.00123781,1.01868,0.974959,1.22133e-08,1.96938,1.00309
1.1,-0.204424,1.01695,0.976002,1.66204e-09,1.972,1.00271
1.11,-0.391605,1.01404,0.978993,5.39624e-08,1.97592,1.00183
1.12,-0.532778,1.01071,0.983665,1.61171e-08,1.98145,1.00134
1.13,-0.616037,1.00705,0.989446,6.00011e-09,1.98785,1.00093
1.14,-0.651078,1.00313,0.995819,-0,1.99473,1.00048
1.15,-0.638372,0.999018,1.0023,-0,2.00214,1.00009
1.16,-0.585818,0.997247,1.00845,0.00468841,2.00904,0.999416
1.17,-0.509078,0.995866,1.01393,0.00918455,2.01572,0.999119
1.18,-0.440939,0.996624,1.01866,0.0152057,2.02007,0.99905
1.19,-0.396142,0.999004,1.02283,0.0218569,2.0233,0.999727
1.2,-0.37308,1.00162,1.02665,0.0277974,2.02565,1.00055
1.21,-0.375404,1.00281,1.03039,0.0324482,2.02856,1.00086
1.22,-0.376208,1.00165,1.03415,0.0356448,2.0333,1.00047
1.23,-0.35841,0.999323,1.03784,0.037462,2.03834,0.999764
1.24,-0.321814,0.997827,1.04126,0.0394107,2.0424,0.999317
1.25,-0.270332,0.998128,1.04423,0.0424753,2.04514,0.999459
1.26,-0.231856,1.00003,1.04671,0.0469338,2.04684,0.999983
1.27,-0.225639,1.00183,1.04899,0.0503064,2.04797,1.00066
1.28,-0.228018,1.00243,1.05125,0.0528689,2.04947,1.00073
1.29,-0.229082,1.00094,1.05354,0.0544245,2.05314,1.0003
1.3,-0.21414,0.998935,1.05578,0.0550968,2.05643,0.999603
1.31,-0.175292,0.998092,1.05774,0.056226,2.05879,0.999371
1.32,-0.124457,0.998843,1.05924,0.0583249,2.05995,0.999653
1.33,-0.10123,1.00067,1.06033,0.0610226,2.06,1.00015
1.34,-0.0974323,1.00192,1.06132,0.0626917,2.06035,1.00075
1.35,-0.096649,1.00197,1.06229,0.0637073,2.06083,1.00053
1.36,-0.0896537,1.00023,1.06324,0.0636561,2.06338,1.00009
1.37,-0.0668237,0.998846,1.06402,0.0634227,2.0648,0.999532
1.38,-0.0362442,0.998491,1.06455,0.0629311,2.06517,0.999608
1.39,-0.00830526,0.999731,1.06475,0.0645878,2.06488,0.999877
1.4,-0.00361457,1.00108,1.0648,0.0658334,2.06439,1.00036
1.41,-0.0067404,1.0018,1.06485,0.0660975,2.0636,1.00055
1.42,-0.00263087,1.0011,1.06491,0.0656914,2.06416,1.00034
1.43,0.0161693,0.999641,1.06485,0.0647966,2.06537,0.999925
