time,velocity,ratio,centerX,Xmax,Xmin,Ymax
0,0,1,16,15,17,1
0.01,0.0197587,1,15.9999,14.9999,16.9999,1
0.02,0.0393095,1.00001,15.9996,14.9996,16.9996,1
0.03,0.0586509,1.00001,15.9991,14.9991,16.9991,1
0.04,0.0777836,1.00002,15.9985,14.9985,16.9984,1
0.05,0.0967546,1.00003,15.9976,14.9976,16.9975,0.999999
0.06,0.115567,1.00003,15.9965,14.9965,16.9965,0.999998
0.07,0.13412,1.00005,15.9953,14.9953,16.9952,0.999997
0.08,0.152467,1.00006,15.9939,14.9939,16.9938,0.999994
0.09,0.170629,1.00008,15.9923,14.9923,16.9921,0.999991
0.1,0.188716,1.00012,15.9905,14.9906,16.9903,1.00002
0.11,0.20654,1.00017,15.9885,14.9886,16.9884,1.00004
0.12,0.224222,1.00022,15.9864,14.9865,16.9862,1.00007
0.13,0.241707,1.00028,15.984,14.9842,16.9839,1.00009
0.14,0.259037,1.00034,15.9815,14.9818,16.9814,1.00011
0.15,0.27622,1.00042,15.9789,14.9792,16.9786,1.00014
0.16,0.293204,1.00054,15.976,14.9765,16.9757,1.00017
0.17,0.31002,1.0007,15.973,14.9736,16.9726,1.00023
0.18,0.326668,1.00088,15.9699,14.9705,16.9693,1.00029
0.19,0.343182,1.00109,15.9665,14.9673,16.9658,1.00036
0.2,0.359487,1.00132,15.963,14.9639,16.9621,1.00042
0.21,0.375614,1.0016,15.9593,14.9604,16.9583,1.0005
0.22,0.391602,1.00194,15.9555,14.9568,16.9542,1.00062
0.23,0.407398,1.00229,15.9515,14.9531,16.95,1.00073
0.24,0.422986,1.00267,15.9474,14.9492,16.9455,1.00084
0.25,0.438491,1.0031,15.9431,14.9451,16.9409,1.00097
0.26,0.453774,1.00359,15.9386,14.9409,16.9361,1.00114
0.27,0.468827,1.00411,15.934,14.9366,16.9311,1.00131
0.28,0.483729,1.0047,15.9292,14.9322,16.9258,1.00147
0.29,0.498456,1.00534,15.9243,14.9277,16.9204,1.0017
0.3,0.513006,1.00601,15.9193,14.923,16.9149,1.00193
0.31,0.527365,1.00674,15.9141,14.9183,16.9092,1.00215
0.32,0.541564,1.00756,15.9088,14.9134,16.9032,1.00243
0.33,0.555512,1.00845,15.9033,14.9084,16.897,1.00271
0.34,0.569252,1.00941,15.8977,14.9033,16.8906,1.00299
0.35,0.582852,1.01044,15.8919,14.8981,16.8841,1.00333
0.36,0.596308,1.01156,15.886,14.8928,16.8773,1.00368
0.37,0.6095,1.01273,15.88,14.8875,16.8703,1.00403
0.38,0.622502,1.01402,15.8738,14.882,16.8631,1.00444
0.39,0.635267,1.01534,15.8676,14.8764,16.8557,1.00484
0.4,0.647774,1.01668,15.8611,14.8707,16.8483,1.00528
0.41,0.6603,1.01818,15.8546,14.865,16.8405,1.00575
0.42,0.6724,1.01972,15.8479,14.8591,16.8326,1.0062
0.43,0.684323,1.02144,15.8412,14.8532,16.8244,1.00674
0.44,0.696012,1.02317,15.8343,14.8472,16.8161,1.00726
0.45,0.707515,1.02506,15.8273,14.8411,16.8075,1.00783
0.46,0.718772,1.02699,15.8201,14.8349,16.7987,1.00841
0.47,0.72979,1.02902,15.8129,14.8287,16.7897,1.009
0.48,0.740623,1.03111,15.8055,14.8223,16.7807,1.00964
0.49,0.751186,1.03325,15.7981,14.8159,16.7714,1.01026
0.5,0.761543,1.03559,15.7905,14.8094,16.7619,1.01097
0.51,0.771656,1.03793,15.7829,14.8028,16.7522,1.01165
0.52,0.781381,1.04045,15.7751,14.7962,16.7423,1.01239
0.53,0.791,1.04303,15.7672,14.7895,16.7322,1.01312
0.54,0.800442,1.04566,15.7593,14.7828,16.722,1.0139
0.55,0.809667,1.04837,15.7512,14.7759,16.7117,1.01468
0.56,0.818655,1.05118,15.7431,14.769,16.7011,1.0155
0.57,0.827406,1.05414,15.7349,14.7621,16.6904,1.01633
0.58,0.836012,1.05717,15.7266,14.7551,16.6794,1.01718
0.59,0.844274,1.06029,15.7182,14.748,16.6683,1.01806
0.6,0.852348,1.06347,15.7097,14.7409,16.6571,1.01895
0.61,0.860208,1.06675,15.7011,14.7337,16.6458,1.01988
0.62,0.867901,1.07011,15.6925,14.7265,16.6344,1.02081
0.63,0.875437,1.07358,15.6838,14.7192,16.6227,1.02178
0.64,0.882522,1.07715,15.675,14.7119,16.6109,1.02276
0.65,0.889594,1.08081,15.6661,14.7045,16.5989,1.02377
0.66,0.896511,1.08448,15.6572,14.6971,16.587,1.02478
0.67,0.903168,1.08822,15.6482,14.6896,16.5749,1.02582
0.68,0.909642,1.09205,15.6392,14.682,16.5626,1.02687
0.69,0.915899,1.09598,15.63,14.6744,16.5503,1.02794
0.7,0.922,1.1,15.6208,14.6668,16.5378,1.02902
0.71,0.928089,1.10403,15.6116,14.6591,16.5252,1.03012
0.72,0.933792,1.10812,15.6023,14.6514,16.5127,1.03123
0.73,0.939355,1.11225,15.5929,14.6437,16.5,1.03234
0.74,0.944736,1.11651,15.5835,14.6359,16.4872,1.03349
0.75,0.949981,1.12077,15.574,14.628,16.4743,1.03462
0.76,0.955084,1.1251,15.5645,14.6201,16.4614,1.03581
0.77,0.96006,1.12939,15.5549,14.6122,16.4485,1.03696
0.78,0.96487,1.13384,15.5453,14.6042,16.4355,1.03818
0.79,0.969529,1.13827,15.5357,14.5962,16.4224,1.03936
0.8,0.97406,1.1428,15.5259,14.5882,16.4093,1.0406
0.81,0.978451,1.14731,15.5162,14.5801,16.3962,1.04181
0.82,0.982636,1.15185,15.5064,14.572,16.3831,1.04305
0.83,0.986781,1.15639,15.4965,14.5638,16.37,1.04429
0.84,0.990666,1.16097,15.4866,14.5556,16.3568,1.04553
0.85,0.994723,1.1656,15.4767,14.5474,16.3436,1.04681
0.86,0.998508,1.17016,15.4668,14.5391,16.3304,1.04804
0.87,1.00226,1.17478,15.4568,14.5308,16.3172,1.04935
0.88,1.00585,1.17939,15.4467,14.5224,16.3041,1.05061
0.89,1.00935,1.18406,15.4366,14.5141,16.2909,1.05191
0.9,1.01273,1.18872,15.4265,14.5056,16.2777,1.05322
0.91,1.01601,1.19335,15.4164,14.4971,16.2645,1.05451
0.92,1.01923,1.19802,15.4062,14.4887,16.2513,1.05585
0.93,1.02231,1.20267,15.396,14.4802,16.2382,1.05715
0.94,1.02541,1.20739,15.3858,14.4716,16.225,1.0585
0.95,1.02836,1.21208,15.3755,14.4631,16.2119,1.05983
0.96,1.03127,1.21675,15.3652,14.4545,16.1988,1.06116
0.97,1.03406,1.22142,15.3549,14.4459,16.1857,1.06252
0.98,1.03681,1.226,15.3445,14.4373,16.1727,1.06382
0.99,1.03951,1.23066,15.3342,14.4286,16.1597,1.06519
1,1.04214,1.23528,15.3238,14.4199,16.1467,1.06653
1.01,1.04467,1.23987,15.3133,14.4112,16.1337,1.06786
1.02,1.04714,1.24448,15.3029,14.4024,16.1208,1.06924
1.03,1.04954,1.24902,15.2924,14.3936,16.1079,1.07058
1.04,1.05189,1.25359,15.2819,14.3848,16.095,1.07194
1.05,1.05423,1.25813,15.2713,14.376,16.0822,1.07331
1.06,1.05649,1.26258,15.2608,14.3671,16.0694,1.07463
1.07,1.05878,1.2671,15.2502,14.3583,16.0567,1.07602
1.08,1.06095,1.27156,15.2396,14.3494,16.0439,1.07737
1.09,1.06315,1.27596,15.229,14.3405,16.0313,1.0787
1.1,1.0653,1.28043,15.2184,14.3315,16.0186,1.08007
1.11,1.06736,1.28481,15.2077,14.3225,16.0059,1.08141
1.12,1.06948,1.28913,15.197,14.3135,15.9933,1.08273
1.13,1.07158,1.29347,15.1863,14.3045,15.9807,1.0841
1.14,1.07369,1.29774,15.1756,14.2954,15.9682,1.08543
1.15,1.07568,1.30198,15.1649,14.2863,15.9557,1.08675
1.16,1.07759,1.30622,15.1541,14.2772,15.9432,1.0881
1.17,1.07945,1.31038,15.1433,14.2681,15.9308,1.08941
1.18,1.08125,1.31451,15.1325,14.2589,15.9184,1.0907
1.19,1.08308,1.31864,15.1217,14.2497,15.906,1.09204
1.2,1.08487,1.32271,15.1108,14.2405,15.8936,1.09333
1.21,1.08663,1.32674,15.1,14.2313,15.8813,1.09458
1.22,1.08834,1.3308,15.0891,14.222,15.869,1.09588
1.23,1.09004,1.3348,15.0782,14.2127,15.8567,1.09715
1.24,1.09175,1.33872,15.0673,14.2035,15.8444,1.09838
1.25,1.09344,1.34265,15.0564,14.1941,15.8322,1.09965
1.26,1.09504,1.34653,15.0455,14.1848,15.82,1.1009
1.27,1.09664,1.35031,15.0345,14.1754,15.8078,1.10212
1.28,1.09835,1.35408,15.0235,14.166,15.7956,1.10332
1.29,1.10004,1.35784,15.0125,14.1566,15.7835,1.10455
1.3,1.10156,1.36156,15.0015,14.1471,15.7714,1.10574
1.31,1.1032,1.3652,14.9905,14.1377,15.7593,1.10689
1.32,1.10478,1.36884,14.9795,14.1282,15.7472,1.10807
1.33,1.10633,1.37241,14.9684,14.1186,15.7351,1.10923
1.34,1.10777,1.37593,14.9574,14.1091,15.7231,1.11034
1.35,1.10926,1.37939,14.9463,14.0996,15.711,1.11142
1.36,1.11077,1.3829,14.9352,14.09,15.699,1.11255
1.37,1.11228,1.38633,14.9241,14.0804,15.687,1.11366
1.38,1.11373,1.38968,14.9129,14.0708,15.6751,1.11472
1.39,1.11522,1.39296,14.9018,14.0611,15.6631,1.11574
1.4,1.11668,1.39629,14.8906,14.0514,15.6511,1.11682
1.41,1.11814,1.39956,14.8795,14.0417,15.6392,1.11787
1.42,1.11959,1.40274,14.8683,14.032,15.6273,1.11887
1.43,1.121,1.40586,14.8571,14.0223,15.6154,1.11983
1.44,1.12242,1.40904,14.8459,14.0125,15.6035,1.12083
1.45,1.12391,1.41214,14.8346,14.0027,15.5916,1.12181
1.46,1.12536,1.41517,14.8234,13.9929,15.5797,1.12275
1.47,1.12674,1.41813,14.8121,13.9831,15.5678,1.12365
1.48,1.12818,1.42111,14.8008,13.9733,15.5559,1.12457
1.49,1.12961,1.42406,14.7896,13.9634,15.5441,1.12548
1.5,1.13099,1.42696,14.7783,13.9535,15.5322,1.12635
1.51,1.13232,1.42979,14.7669,13.9436,15.5204,1.12719
1.52,1.13373,1.43256,14.7556,13.9337,15.5085,1.12801
1.53,1.13515,1.43536,14.7443,13.9237,15.4967,1.12887
1.54,1.13654,1.43812,14.7329,13.9138,15.4849,1.1297
1.55,1.13797,1.44079,14.7215,13.9038,15.473,1.13049
1.56,1.13941,1.44342,14.7102,13.8938,15.4612,1.13123
1.57,1.14081,1.44609,14.6988,13.8837,15.4493,1.13201
1.58,1.14223,1.4487,14.6873,13.8736,15.4375,1.13279
1.59,1.14372,1.45123,14.6759,13.8635,15.4257,1.13352
1.6,1.1451,1.45374,14.6645,13.8534,15.4139,1.13421
1.61,1.14658,1.4562,14.653,13.8433,15.402,1.13489
1.62,1.14799,1.45872,14.6415,13.8332,15.3902,1.13561
1.63,1.14944,1.46114,14.6301,13.823,15.3783,1.13629
1.64,1.15081,1.46347,14.6186,13.8128,15.3665,1.13693
1.65,1.15221,1.46574,14.6071,13.8025,15.3547,1.13754
1.66,1.15361,1.46802,14.5955,13.7923,15.3429,1.13816
1.67,1.15502,1.47031,14.584,13.782,15.331,1.1388
1.68,1.15649,1.47253,14.5724,13.7717,15.3192,1.13939
1.69,1.15784,1.4747,14.5609,13.7613,15.3074,1.13995
1.7,1.15924,1.47679,14.5493,13.751,15.2955,1.14048
1.71,1.16065,1.47891,14.5377,13.7406,15.2837,1.14105
1.72,1.16207,1.48104,14.5261,13.7302,15.2718,1.1416
1.73,1.16349,1.48311,14.5144,13.7197,15.2599,1.14212
1.74,1.16494,1.48512,14.5028,13.7093,15.248,1.14261
1.75,1.16633,1.48709,14.4911,13.6988,15.2362,1.14308
1.76,1.16774,1.48909,14.4795,13.6883,15.2243,1.14359
1.77,1.16923,1.49103,14.4678,13.6778,15.2124,1.14408
1.78,1.1707,1.49294,14.4561,13.6672,15.2005,1.14454
1.79,1.17218,1.49478,14.4444,13.6566,15.1886,1.14497
1.8,1.17364,1.49656,14.4327,13.646,15.1767,1.14538
1.81,1.17508,1.49841,14.4209,13.6353,15.1647,1.14583
1.82,1.17653,1.5002,14.4092,13.6246,15.1528,1.14627
1.83,1.17805,1.50194,14.3974,13.6139,15.1408,1.14667
1.84,1.17953,1.50364,14.3856,13.6032,15.1289,1.14705
1.85,1.1811,1.50526,14.3738,13.5924,15.117,1.1474
1.86,1.18261,1.50696,14.362,13.5817,15.105,1.14781
1.87,1.18399,1.50863,14.3501,13.5708,15.093,1.14819
1.88,1.1855,1.51021,14.3383,13.56,15.081,1.14854
1.89,1.18699,1.51173,14.3264,13.5491,15.069,1.14887
1.9,1.18855,1.5132,14.3146,13.5382,15.057,1.14916
1.91,1.19005,1.51474,14.3027,13.5272,15.045,1.14953
1.92,1.19148,1.51623,14.2908,13.5162,15.033,1.14986
1.93,1.19296,1.51768,14.2788,13.5052,15.0209,1.15017
1.94,1.19442,1.51904,14.2669,13.4941,15.0088,1.15044
1.95,1.1959,1.52037,14.255,13.4831,14.9968,1.1507
1.96,1.19738,1.52178,14.243,13.472,14.9847,1.15102
1.97,1.1989,1.52314,14.231,13.4609,14.9726,1.15131
1.98,1.20043,1.52445,14.219,13.4497,14.9605,1.15157
1.99,1.20193,1.52569,14.207,13.4385,14.9484,1.15181
2,1.20355,1.52685,14.195,13.4273,14.9363,1.15202
2.01,1.20509,1.52807,14.1829,13.416,14.9242,1.1523
2.02,1.20661,1.52924,14.1709,13.4047,14.912,1.15255
2.03,1.20817,1.53039,14.1588,13.3934,14.8999,1.15277
2.04,1.20971,1.53147,14.1467,13.382,14.8877,1.15297
2.05,1.21124,1.53248,14.1346,13.3706,14.8755,1.15316
2.06,1.21266,1.53357,14.1225,13.3592,14.8634,1.1534
2.07,1.21428,1.53462,14.1104,13.3477,14.8512,1.15362
2.08,1.21591,1.53563,14.0982,13.3362,14.8389,1.15381
2.09,1.21744,1.5366,14.0861,13.3247,14.8267,1.15398
2.1,1.21908,1.53751,14.0739,13.3131,14.8144,1.15414
2.11,1.22066,1.53847,14.0617,13.3015,14.8022,1.15436
2.12,1.22227,1.53939,14.0495,13.2899,14.7899,1.15455
2.13,1.22387,1.54027,14.0372,13.2782,14.7776,1.15471
2.14,1.22545,1.54112,14.025,13.2665,14.7652,1.15486
2.15,1.22697,1.54192,14.0127,13.2548,14.7529,1.15499
2.16,1.22861,1.54275,14.0005,13.243,14.7406,1.15518
2.17,1.23022,1.54359,13.9882,13.2312,14.7282,1.15535
2.18,1.23172,1.54438,13.9759,13.2194,14.7158,1.15549
2.19,1.23326,1.54514,13.9635,13.2076,14.7034,1.15562
2.2,1.23483,1.54585,13.9512,13.1957,14.691,1.15572
2.21,1.23638,1.54661,13.9388,13.1838,14.6786,1.1559
2.22,1.23789,1.54735,13.9265,13.1719,14.6661,1.15606
2.23,1.23952,1.54805,13.9141,13.1599,14.6537,1.15619
2.24,1.24101,1.54874,13.9017,13.1479,14.6412,1.15632
2.25,1.24253,1.54938,13.8893,13.1359,14.6287,1.15641
2.26,1.24406,1.55001,13.8768,13.1239,14.6162,1.15654
2.27,1.24554,1.55068,13.8644,13.1118,14.6036,1.15669
2.28,1.24705,1.55133,13.8519,13.0997,14.5911,1.15681
2.29,1.24853,1.55194,13.8395,13.0876,14.5785,1.15691
2.3,1.25007,1.55251,13.827,13.0755,14.566,1.15699
2.31,1.25164,1.55311,13.8145,13.0633,14.5534,1.15712
2.32,1.25312,1.55372,13.8019,13.0511,14.5408,1.15726
2.33,1.25458,1.5543,13.7894,13.0389,14.5281,1.15738
2.34,1.25609,1.55485,13.7769,13.0266,14.5155,1.15748
2.35,1.25753,1.55538,13.7643,13.0144,14.5028,1.15757
2.36,1.25904,1.55589,13.7517,13.0021,14.4902,1.15766
2.37,1.26055,1.55646,13.7391,12.9897,14.4775,1.15781
2.38,1.26198,1.55702,13.7265,12.9774,14.4648,1.15793
2.39,1.26348,1.55756,13.7139,12.9651,14.452,1.15804
2.4,1.26492,1.55808,13.7012,12.9527,14.4393,1.15813
2.41,1.26635,1.55855,13.6886,12.9403,14.4266,1.15821
2.42,1.26774,1.55909,13.6759,12.9279,14.4138,1.15835
2.43,1.26916,1.55964,13.6632,12.9154,14.401,1.15848
2.44,1.27054,1.56016,13.6505,12.9029,14.3882,1.1586
2.45,1.27199,1.56066,13.6378,12.8905,14.3754,1.15871
2.46,1.27334,1.56113,13.6251,12.878,14.3625,1.1588
2.47,1.27472,1.56158,13.6124,12.8654,14.3497,1.15889
2.48,1.27597,1.56214,13.5996,12.8529,14.3368,1.15904
2.49,1.27737,1.56268,13.5868,12.8403,14.3239,1.15916
2.5,1.27871,1.56319,13.5741,12.8278,14.311,1.15928
2.51,1.27995,1.56366,13.5613,12.8152,14.2981,1.15938
2.52,1.28122,1.56412,13.5485,12.8025,14.2851,1.15947
2.53,1.28247,1.56465,13.5356,12.7899,14.2722,1.1596
2.54,1.28374,1.56519,13.5228,12.7773,14.2592,1.15974
2.55,1.28504,1.56572,13.51,12.7646,14.2462,1.15987
2.56,1.28625,1.56621,13.4971,12.7519,14.2332,1.15999
2.57,1.28742,1.56669,13.4843,12.7392,14.2202,1.16009
2.58,1.28856,1.56718,13.4714,12.7265,14.2071,1.16018
2.59,1.28983,1.56776,13.4585,12.7138,14.1941,1.16034
2.6,1.29108,1.56833,13.4456,12.7011,14.181,1.16049
2.61,1.29221,1.56887,13.4327,12.6884,14.1679,1.16062
2.62,1.29327,1.5694,13.4197,12.6756,14.1548,1.16075
2.63,1.29445,1.56991,13.4068,12.6628,14.1417,1.16086
2.64,1.2956,1.57043,13.3939,12.65,14.1286,1.16097
2.65,1.29666,1.57104,13.3809,12.6373,14.1154,1.16114
2.66,1.29773,1.57162,13.3679,12.6244,14.1023,1.16129
2.67,1.29875,1.5722,13.3549,12.6116,14.0891,1.16144
2.68,1.2998,1.5728,13.342,12.5988,14.0759,1.16156
2.69,1.30084,1.57337,13.3289,12.586,14.0627,1.16168
2.7,1.30189,1.57399,13.3159,12.5731,14.0494,1.16182
2.71,1.30288,1.57463,13.3029,12.5603,14.0362,1.162
2.72,1.30382,1.57527,13.2899,12.5474,14.0229,1.16216
2.73,1.30479,1.57591,13.2768,12.5345,14.0096,1.16231
2.74,1.3058,1.57652,13.2638,12.5216,13.9963,1.16245
2.75,1.30668,1.57715,13.2507,12.5088,13.983,1.16257
2.76,1.30761,1.57777,13.2377,12.4958,13.9697,1.16273
2.77,1.30853,1.57847,13.2246,12.4829,13.9564,1.16291
2.78,1.30941,1.57918,13.2115,12.47,13.943,1.16308
2.79,1.31029,1.57985,13.1984,12.4571,13.9297,1.16324
2.8,1.3111,1.58053,13.1853,12.4442,13.9163,1.16339
2.81,1.31191,1.58118,13.1722,12.4312,13.903,1.16353
2.82,1.31286,1.58187,13.1591,12.4183,13.8896,1.16369
2.83,1.31375,1.58261,13.1459,12.4053,13.8762,1.16388
2.84,1.31455,1.58333,13.1328,12.3924,13.8628,1.16407
2.85,1.31536,1.58404,13.1196,12.3794,13.8494,1.16424
2.86,1.3161,1.58471,13.1065,12.3664,13.8359,1.1644
2.87,1.31686,1.5854,13.0933,12.3534,13.8225,1.16454
2.88,1.31759,1.5861,13.0801,12.3405,13.8091,1.1647
2.89,1.31836,1.58688,13.067,12.3275,13.7956,1.1649
2.9,1.31913,1.58762,13.0538,12.3145,13.7822,1.16509
2.91,1.31977,1.58836,13.0406,12.3015,13.7687,1.16527
2.92,1.32046,1.58907,13.0274,12.2884,13.7552,1.16544
2.93,1.32122,1.58977,13.0142,12.2754,13.7418,1.1656
2.94,1.32188,1.59047,13.001,12.2624,13.7283,1.16574
2.95,1.32254,1.59123,12.9877,12.2493,13.7148,1.16595
2.96,1.32323,1.59199,12.9745,12.2363,13.7013,1.16615
2.97,1.32387,1.59275,12.9613,12.2232,13.6878,1.16634
2.98,1.32444,1.59349,12.948,12.2102,13.6743,1.16651
2.99,1.32495,1.59423,12.9348,12.1972,13.6608,1.16668
3,1.32548,1.59494,12.9216,12.1841,13.6473,1.16684
3.01,1.32614,1.5957,12.9083,12.171,13.6338,1.16703
3.02,1.32672,1.59649,12.895,12.158,13.6203,1.16724
3.03,1.32726,1.59726,12.8818,12.1449,13.6067,1.16744
3.04,1.32767,1.59803,12.8685,12.1319,13.5932,1.16763
3.05,1.32825,1.59875,12.8552,12.1188,13.5797,1.16781
3.06,1.32874,1.59949,12.8419,12.1057,13.5661,1.16797
3.07,1.32927,1.60022,12.8286,12.0926,13.5526,1.16813
3.08,1.32972,1.60104,12.8153,12.0796,13.539,1.16835
3.09,1.33019,1.60183,12.8021,12.0665,13.5255,1.16856
3.1,1.33065,1.60261,12.7887,12.0534,13.512,1.16876
3.11,1.33122,1.60336,12.7754,12.0403,13.4984,1.16894
3.12,1.3318,1.60409,12.7621,12.0272,13.4849,1.16912
3.13,1.3322,1.60482,12.7488,12.0141,13.4713,1.16928
3.14,1.33261,1.60556,12.7355,12.001,13.4578,1.16946
3.15,1.33312,1.60635,12.7222,11.9879,13.4442,1.16967
3.16,1.33354,1.60713,12.7088,11.9748,13.4306,1.16987
3.17,1.33394,1.6079,12.6955,11.9617,13.4171,1.17006
3.18,1.33425,1.60865,12.6822,11.9486,13.4035,1.17024
3.19,1.33464,1.60937,12.6688,11.9355,13.39,1.17041
3.2,1.33518,1.61007,12.6555,11.9224,13.3764,1.17057
3.21,1.33558,1.61082,12.6421,11.9092,13.3628,1.17076
3.22,1.33599,1.61158,12.6288,11.8961,13.3493,1.17097
3.23,1.33626,1.61234,12.6154,11.883,13.3357,1.17117
3.24,1.33657,1.61304,12.602,11.8698,13.3222,1.17135
3.25,1.33694,1.61375,12.5887,11.8567,13.3086,1.17152
3.26,1.33727,1.61445,12.5753,11.8436,13.2951,1.17168
3.27,1.33764,1.61512,12.5619,11.8304,13.2815,1.17182
3.28,1.33798,1.61585,12.5485,11.8173,13.2679,1.17201
3.29,1.33838,1.61657,12.5352,11.8041,13.2544,1.17221
3.3,1.3388,1.61727,12.5218,11.791,13.2408,1.17239
3.31,1.33913,1.61794,12.5084,11.7778,13.2272,1.17256
3.32,1.33955,1.61861,12.495,11.7646,13.2137,1.17272
3.33,1.33987,1.61924,12.4816,11.7514,13.2001,1.17287
3.34,1.34029,1.61984,12.4682,11.7383,13.1865,1.173
3.35,1.34067,1.62049,12.4548,11.7251,13.173,1.17316
3.36,1.34101,1.62117,12.4414,11.7119,13.1594,1.17335
3.37,1.34128,1.62185,12.428,11.6987,13.1459,1.17353
3.38,1.34167,1.62249,12.4146,11.6855,13.1323,1.17369
3.39,1.34204,1.6231,12.4012,11.6723,13.1188,1.17385
3.4,1.34236,1.6237,12.3877,11.6591,13.1052,1.17399
3.41,1.34259,1.62426,12.3743,11.6459,13.0917,1.17413
3.42,1.34297,1.62484,12.3609,11.6327,13.0781,1.17425
3.43,1.34327,1.62543,12.3475,11.6195,13.0645,1.17443
3.44,1.34355,1.62605,12.334,11.6063,13.051,1.1746
3.45,1.34379,1.62665,12.3206,11.5931,13.0374,1.17476
3.46,1.34406,1.62723,12.3072,11.5798,13.0239,1.1749
3.47,1.34437,1.62778,12.2937,11.5666,13.0103,1.17504
3.48,1.34465,1.62829,12.2803,11.5534,12.9968,1.17516
3.49,1.34509,1.62879,12.2668,11.5401,12.9833,1.17528
3.5,1.3454,1.62929,12.2534,11.5269,12.9697,1.1754
3.51,1.34579,1.62985,12.2399,11.5137,12.9562,1.17556
3.52,1.34607,1.63038,12.2265,11.5004,12.9427,1.17571
3.53,1.34636,1.63088,12.213,11.4871,12.9291,1.17585
3.54,1.34664,1.63139,12.1995,11.4739,12.9156,1.17598
3.55,1.34686,1.63188,12.1861,11.4606,12.902,1.17609
3.56,1.34708,1.63235,12.1726,11.4474,12.8885,1.1762
3.57,1.34742,1.63278,12.1591,11.4341,12.875,1.17629
3.58,1.34777,1.63325,12.1457,11.4209,12.8614,1.17642
3.59,1.34807,1.63373,12.1322,11.4076,12.8479,1.17657
3.6,1.34835,1.63418,12.1187,11.3943,12.8344,1.1767
3.61,1.34868,1.63463,12.1052,11.381,12.8209,1.17682
3.62,1.34895,1.63501,12.0917,11.3677,12.8074,1.17692
3.63,1.34922,1.6354,12.0782,11.3544,12.7939,1.17702
3.64,1.34949,1.63577,12.0647,11.3412,12.7804,1.1771
3.65,1.34983,1.63615,12.0513,11.3279,12.7668,1.17718
3.66,1.35022,1.63656,12.0378,11.3146,12.7533,1.1773
3.67,1.35054,1.63695,12.0243,11.3012,12.7398,1.17742
3.68,1.35099,1.63733,12.0107,11.2879,12.7263,1.17753
3.69,1.35137,1.63768,11.9972,11.2746,12.7128,1.17763
3.7,1.35163,1.63804,11.9837,11.2613,12.6992,1.17771
3.71,1.35205,1.63834,11.9702,11.2479,12.6857,1.17779
3.72,1.35233,1.63864,11.9567,11.2346,12.6722,1.17785
3.73,1.3527,1.63894,11.9432,11.2213,12.6587,1.17791
3.74,1.353,1.63933,11.9296,11.2079,12.6451,1.17803
3.75,1.35338,1.6397,11.9161,11.1946,12.6316,1.17813
3.76,1.35379,1.64002,11.9026,11.1812,12.6181,1.17823
3.77,1.3542,1.64033,11.889,11.1679,12.6046,1.17831
3.78,1.35458,1.64061,11.8755,11.1545,12.591,1.17838
3.79,1.35478,1.64089,11.8619,11.1411,12.5775,1.17843
3.8,1.35511,1.64115,11.8484,11.1278,12.5639,1.17848
