time,velocity,ratio,centerX,Xmax,Xmin,Ymax
0,0,1,41,40,42,1
0.01,0.0197967,0.999986,40.9999,39.9999,41.9999,1
0.02,0.0394163,1,40.9996,39.9996,41.9996,1
0.03,0.0587741,1.00004,40.9991,39.9992,41.9991,1.00001
0.04,0.0778975,1.00007,40.9984,39.9985,41.9984,1.00002
0.05,0.0967876,1.00009,40.9976,39.9976,41.9975,1.00003
0.06,0.115465,1.00012,40.9965,39.9966,41.9964,1.00004
0.07,0.133941,1.00015,40.9953,39.9954,41.9951,1.00004
0.08,0.152252,1.00017,40.9938,39.994,41.9937,1.00004
0.09,0.170444,1.00018,40.9922,39.9924,41.9921,1.00002
0.1,0.188803,1.0002,40.9904,39.9906,41.9902,1.00003
0.11,0.207083,1.00019,40.9884,39.9886,41.9883,1.00005
0.12,0.225233,1.00015,40.9863,39.9864,41.9863,1.00008
0.13,0.24309,1.00016,40.9839,39.984,41.9839,1.0001
0.14,0.260654,1.00018,40.9814,39.9816,41.9814,1.00009
0.15,0.277927,1.00025,40.9787,39.9789,41.9785,1.00005
0.16,0.295007,1.0003,40.9759,39.9761,41.9756,1.00003
0.17,0.312191,1.00035,40.9728,39.9731,41.9725,1.00005
0.18,0.329404,1.00031,40.9696,39.9699,41.9694,1.00009
0.19,0.346144,1.00026,40.9663,39.9664,41.9661,1.00015
0.2,0.362538,1.00033,40.9627,39.9629,41.9625,1.00015
0.21,0.378878,1.00041,40.959,39.9592,41.9587,1.00015
0.22,0.395357,1.00053,40.9551,39.9556,41.9547,1.00012
0.23,0.411529,1.00056,40.9511,39.9516,41.9507,1.00012
0.24,0.427306,1.00059,40.9469,39.9474,41.9465,1.00016
0.25,0.443086,1.00059,40.9426,39.9429,41.9421,1.0002
0.26,0.459046,1.00055,40.938,39.9383,41.9377,1.00023
0.27,0.474584,1.00058,40.9334,39.9338,41.933,1.00023
0.28,0.489708,1.00073,40.9286,39.9291,41.928,1.00021
0.29,0.505151,1.00082,40.9236,39.9242,41.9229,1.0002
0.3,0.52027,1.00073,40.9185,39.919,41.9179,1.0002
0.31,0.535144,1.00077,40.9132,39.9137,41.9127,1.00024
0.32,0.550208,1.00084,40.9078,39.9083,41.9072,1.00029
0.33,0.564898,1.00077,40.9022,39.9027,41.9018,1.0003
0.34,0.579432,1.00083,40.8965,39.897,41.8959,1.00028
0.35,0.594043,1.00103,40.8906,39.8913,41.8898,1.00029
0.36,0.608282,1.00098,40.8846,39.8853,41.8839,1.00029
0.37,0.622595,1.00105,40.8784,39.8792,41.8777,1.0003
0.38,0.636736,1.00108,40.8721,39.8729,41.8714,1.00034
0.39,0.65065,1.00106,40.8657,39.8663,41.865,1.00039
0.4,0.664739,1.0012,40.8591,39.8599,41.8583,1.0004
0.41,0.678434,1.00114,40.8524,39.8532,41.8517,1.00038
0.42,0.692221,1.00129,40.8456,39.8464,41.8447,1.0004
0.43,0.705621,1.00138,40.8386,39.8396,41.8376,1.00039
0.44,0.719043,1.00135,40.8314,39.8323,41.8305,1.00045
0.45,0.732359,1.00141,40.8242,39.8252,41.8232,1.00044
0.46,0.74549,1.00141,40.8168,39.8177,41.8159,1.00051
0.47,0.75863,1.00151,40.8093,39.8103,41.8083,1.0005
0.48,0.771516,1.00157,40.8016,39.8027,41.8006,1.00049
0.49,0.784398,1.00159,40.7938,39.7949,41.7927,1.00051
0.5,0.796934,1.00169,40.7859,39.7871,41.7848,1.00051
0.51,0.809636,1.00168,40.7779,39.779,41.7768,1.00055
0.52,0.822197,1.0017,40.7697,39.7709,41.7687,1.00057
0.53,0.834753,1.00176,40.7615,39.7626,41.7603,1.00058
0.54,0.847121,1.00182,40.7531,39.7543,41.7519,1.00062
0.55,0.859355,1.00192,40.7445,39.7458,41.7432,1.00059
0.56,0.871647,1.00196,40.7359,39.7373,41.7346,1.00063
0.57,0.883612,1.00197,40.7271,39.7284,41.7257,1.00061
0.58,0.895667,1.00207,40.7182,39.7196,41.7168,1.00068
0.59,0.907447,1.00201,40.7092,39.7105,41.7078,1.00069
0.6,0.919282,1.00214,40.7,39.7015,41.6986,1.00072
0.61,0.930904,1.00215,40.6908,39.6922,41.6894,1.00072
0.62,0.942457,1.00227,40.6814,39.683,41.6799,1.00072
0.63,0.954021,1.00232,40.6719,39.6736,41.6704,1.00075
0.64,0.965398,1.00232,40.6624,39.6639,41.6608,1.00076
0.65,0.976829,1.00241,40.6526,39.6542,41.651,1.0008
0.66,0.988076,1.0024,40.6428,39.6444,41.6413,1.00082
0.67,0.9991,1.00247,40.6329,39.6346,41.6312,1.0008
0.68,1.01023,1.00253,40.6228,39.6245,41.6211,1.00083
0.69,1.02129,1.00259,40.6127,39.6144,41.6109,1.00085
0.7,1.03202,1.00265,40.6024,39.6042,41.6006,1.00083
0.71,1.04311,1.00267,40.592,39.5938,41.5903,1.00089
0.72,1.05385,1.00268,40.5816,39.5833,41.5798,1.00091
0.73,1.06437,1.00277,40.571,39.5729,41.5691,1.0009
0.74,1.07496,1.00281,40.5603,39.5621,41.5584,1.00094
0.75,1.08545,1.00287,40.5495,39.5514,41.5476,1.00095
0.76,1.09558,1.00296,40.5386,39.5406,41.5366,1.00094
0.77,1.10612,1.00299,40.5275,39.5296,41.5256,1.00099
0.78,1.11638,1.00304,40.5164,39.5185,41.5144,1.00102
0.79,1.12645,1.0031,40.5052,39.5073,41.5032,1.00103
0.8,1.13649,1.00317,40.4939,39.496,41.4918,1.00104
0.81,1.14655,1.00323,40.4825,39.4847,41.4804,1.00108
0.82,1.15644,1.0033,40.471,39.4732,41.4688,1.00108
0.83,1.16617,1.00336,40.4594,39.4617,41.4571,1.00108
0.84,1.17583,1.00337,40.4477,39.4499,41.4454,1.00113
0.85,1.18551,1.00343,40.4358,39.4382,41.4336,1.00116
0.86,1.1951,1.00349,40.4239,39.4263,41.4217,1.00116
0.87,1.20458,1.00353,40.4119,39.4143,41.4096,1.00116
0.88,1.21415,1.00355,40.3999,39.4022,41.3975,1.00117
0.89,1.22361,1.00364,40.3877,39.3901,41.3853,1.00119
0.9,1.23291,1.00368,40.3754,39.3779,41.373,1.00121
0.91,1.24217,1.0037,40.363,39.3655,41.3606,1.00123
0.92,1.25128,1.00373,40.3505,39.3531,41.3481,1.00124
0.93,1.26028,1.00381,40.338,39.3406,41.3355,1.00126
0.94,1.26938,1.00387,40.3253,39.328,41.3228,1.00128
0.95,1.27828,1.00394,40.3126,39.3153,41.31,1.0013
0.96,1.28712,1.004,40.2998,39.3025,41.2972,1.00131
0.97,1.29591,1.00405,40.2869,39.2896,41.2842,1.00133
0.98,1.30463,1.00409,40.2739,39.2766,41.2712,1.00135
0.99,1.31339,1.00415,40.2608,39.2636,41.2581,1.00139
1,1.32216,1.00422,40.2476,39.2505,41.2449,1.00141
1.01,1.33064,1.00427,40.2343,39.2372,41.2316,1.00142
1.02,1.33907,1.00434,40.221,39.2239,41.2181,1.00143
1.03,1.34744,1.00439,40.2075,39.2105,41.2047,1.00144
1.04,1.35583,1.00441,40.194,39.197,41.1912,1.00146
1.05,1.364,1.00444,40.1804,39.1835,41.1776,1.00147
1.06,1.37241,1.00448,40.1667,39.1698,41.1639,1.00149
1.07,1.38063,1.00453,40.153,39.1561,41.1501,1.00151
1.08,1.38888,1.00457,40.1391,39.1423,41.1362,1.00152
1.09,1.39696,1.00462,40.1252,39.1284,41.1222,1.00153
1.1,1.40494,1.00467,40.1112,39.1144,41.1082,1.00155
1.11,1.41283,1.00473,40.0971,39.1003,41.094,1.00157
1.12,1.42063,1.00478,40.0829,39.0862,41.0798,1.00159
1.13,1.42844,1.00483,40.0687,39.072,41.0655,1.0016
1.14,1.43598,1.00487,40.0544,39.0577,41.0512,1.00161
1.15,1.44358,1.00492,40.04,39.0434,41.0368,1.00162
1.16,1.45141,1.00497,40.0255,39.0289,41.0223,1.00165
1.17,1.45904,1.00503,40.0109,39.0144,41.0077,1.00167
1.18,1.46684,1.00508,39.9963,38.9998,40.993,1.0017
1.19,1.47426,1.00514,39.9816,38.9851,40.9783,1.00172
1.2,1.48158,1.0052,39.9668,38.9704,40.9635,1.00174
1.21,1.48879,1.00527,39.952,38.9556,40.9486,1.00175
1.22,1.49597,1.00532,39.9371,38.9407,40.9336,1.00177
1.23,1.50307,1.00535,39.9221,38.9257,40.9186,1.00178
1.24,1.51023,1.00539,39.907,38.9107,40.9036,1.0018
1.25,1.51727,1.00543,39.8919,38.8956,40.8884,1.00181
1.26,1.52429,1.00549,39.8767,38.8804,40.8731,1.00182
1.27,1.53119,1.00552,39.8614,38.8651,40.8578,1.00183
1.28,1.53813,1.00556,39.846,38.8498,40.8424,1.00184
1.29,1.5452,1.00559,39.8306,38.8344,40.827,1.00186
1.3,1.55206,1.00564,39.8151,38.819,40.8115,1.00187
1.31,1.55877,1.00568,39.7996,38.8035,40.7959,1.00189
1.32,1.56545,1.00572,39.784,38.7879,40.7803,1.00191
1.33,1.57203,1.00578,39.7683,38.7722,40.7646,1.00192
1.34,1.57869,1.00585,39.7525,38.7566,40.7488,1.00194
1.35,1.58516,1.00591,39.7367,38.7408,40.7329,1.00196
1.36,1.59156,1.00597,39.7208,38.7249,40.717,1.00198
1.37,1.59789,1.00602,39.7049,38.709,40.701,1.002
1.38,1.60425,1.00606,39.6889,38.693,40.685,1.00202
1.39,1.61055,1.00611,39.6728,38.677,40.6689,1.00204
1.4,1.61677,1.00614,39.6566,38.6609,40.6527,1.00205
1.41,1.62296,1.00618,39.6404,38.6447,40.6365,1.00205
1.42,1.62911,1.00622,39.6242,38.6285,40.6202,1.00206
1.43,1.63511,1.00624,39.6079,38.6122,40.6039,1.00208
1.44,1.64139,1.00627,39.5915,38.5958,40.5875,1.00209
1.45,1.64742,1.0063,39.575,38.5794,40.5711,1.0021
1.46,1.65329,1.00632,39.5585,38.5629,40.5545,1.00211
1.47,1.65913,1.00635,39.542,38.5464,40.538,1.00212
1.48,1.66524,1.00637,39.5254,38.5298,40.5213,1.00212
1.49,1.67099,1.00641,39.5087,38.5131,40.5046,1.00213
1.5,1.67686,1.00645,39.4919,38.4964,40.4878,1.00215
1.51,1.68256,1.00651,39.4751,38.4796,40.471,1.00218
1.52,1.68809,1.00656,39.4583,38.4628,40.4541,1.0022
1.53,1.69368,1.00662,39.4414,38.4459,40.4372,1.00223
1.54,1.69921,1.0067,39.4244,38.429,40.4202,1.00225
1.55,1.70472,1.00676,39.4074,38.4121,40.4031,1.00226
1.56,1.71019,1.0068,39.3903,38.395,40.386,1.00227
1.57,1.71559,1.00685,39.3732,38.3779,40.3689,1.00228
1.58,1.72095,1.00688,39.356,38.3608,40.3517,1.00229
1.59,1.72627,1.0069,39.3388,38.3436,40.3344,1.00229
1.6,1.73161,1.0069,39.3215,38.3263,40.3171,1.00229
1.61,1.73686,1.00693,39.3041,38.309,40.2998,1.00231
1.62,1.74234,1.00698,39.2867,38.2916,40.2824,1.00233
1.63,1.74772,1.007,39.2693,38.2741,40.2649,1.00234
1.64,1.75294,1.00704,39.2518,38.2567,40.2474,1.00236
1.65,1.75795,1.0071,39.2342,38.2392,40.2298,1.00238
1.66,1.76295,1.00713,39.2166,38.2216,40.2122,1.00238
1.67,1.76795,1.00715,39.199,38.204,40.1945,1.00239
1.68,1.77279,1.0072,39.1813,38.1863,40.1767,1.0024
1.69,1.77763,1.00725,39.1635,38.1686,40.159,1.00241
1.7,1.78254,1.0073,39.1457,38.1508,40.1411,1.00244
1.71,1.7873,1.00734,39.1279,38.1329,40.1232,1.00246
1.72,1.79197,1.00741,39.11,38.1151,40.1053,1.00248
1.73,1.79681,1.00744,39.092,38.0972,40.0874,1.00249
1.74,1.80143,1.00745,39.074,38.0792,40.0694,1.00249
1.75,1.80605,1.00747,39.056,38.0612,40.0513,1.00249
1.76,1.81072,1.00752,39.0379,38.0432,40.0332,1.0025
1.77,1.81539,1.00757,39.0198,38.0251,40.0151,1.00253
1.78,1.81995,1.00758,39.0016,38.0068,39.9968,1.00254
1.79,1.82455,1.00763,38.9834,37.9887,39.9786,1.00255
1.8,1.82915,1.00764,38.9651,37.9704,39.9603,1.00255
1.81,1.83354,1.00763,38.9468,37.9521,39.942,1.00255
1.82,1.83789,1.00768,38.9285,37.9338,39.9237,1.00256
1.83,1.84223,1.00776,38.9101,37.9155,39.9052,1.0026
1.84,1.84658,1.0078,38.8916,37.897,39.8867,1.00262
1.85,1.85081,1.00783,38.8731,37.8786,39.8682,1.00262
1.86,1.85495,1.00783,38.8546,37.8601,39.8497,1.00262
1.87,1.85908,1.00785,38.836,37.8415,39.8311,1.00262
1.88,1.86328,1.00792,38.8174,37.823,39.8125,1.00265
1.89,1.86742,1.00797,38.7988,37.8043,39.7938,1.00267
1.9,1.87153,1.00801,38.7801,37.7856,39.7751,1.00268
1.91,1.87552,1.00801,38.7613,37.7669,39.7563,1.00268
1.92,1.87973,1.00801,38.7426,37.7481,39.7376,1.00267
1.93,1.88385,1.00806,38.7237,37.7294,39.7188,1.0027
1.94,1.88786,1.00812,38.7049,37.7106,39.6998,1.00272
1.95,1.89173,1.00815,38.686,37.6917,39.6809,1.00273
1.96,1.89562,1.00815,38.667,37.6727,39.662,1.00273
1.97,1.89948,1.00814,38.6481,37.6538,39.643,1.00272
1.98,1.90329,1.00821,38.6291,37.6348,39.624,1.00275
1.99,1.90697,1.00826,38.61,37.6157,39.6049,1.00277
2,1.91081,1.0083,38.5909,37.5967,39.5857,1.00277
2.01,1.91447,1.00828,38.5718,37.5776,39.5666,1.00277
2.02,1.91815,1.0083,38.5526,37.5584,39.5475,1.00279
2.03,1.92196,1.0084,38.5334,37.5393,39.5282,1.00282
2.04,1.92551,1.00844,38.5142,37.5201,39.5089,1.00283
2.05,1.92898,1.00844,38.4949,37.5008,39.4897,1.00282
2.06,1.93249,1.00845,38.4756,37.4815,39.4704,1.00283
2.07,1.93596,1.00852,38.4563,37.4622,39.451,1.00286
2.08,1.93943,1.00857,38.4369,37.4429,39.4316,1.00288
2.09,1.94289,1.00857,38.4175,37.4235,39.4122,1.00287
2.1,1.94635,1.00856,38.398,37.404,39.3927,1.00287
2.11,1.94988,1.0086,38.3785,37.3846,39.3732,1.00289
2.12,1.95314,1.00866,38.359,37.3651,39.3537,1.00291
2.13,1.95652,1.00867,38.3395,37.3456,39.3341,1.0029
2.14,1.95984,1.00865,38.3199,37.326,39.3146,1.00289
2.15,1.96315,1.00869,38.3003,37.3064,39.2949,1.00292
2.16,1.96649,1.00875,38.2806,37.2867,39.2752,1.00294
2.17,1.96967,1.00876,38.261,37.2671,39.2555,1.00294
2.18,1.97285,1.00876,38.2412,37.2474,39.2358,1.00293
2.19,1.97618,1.00881,38.2215,37.2277,39.2161,1.00296
2.2,1.97925,1.00887,38.2017,37.2079,39.1962,1.00298
2.21,1.9823,1.00887,38.1819,37.1881,39.1764,1.00297
2.22,1.98544,1.00887,38.1621,37.1683,39.1566,1.00298
2.23,1.98852,1.00894,38.1422,37.1484,39.1367,1.00301
2.24,1.9916,1.00899,38.1223,37.1286,39.1167,1.00301
2.25,1.99451,1.00897,38.1024,37.1087,39.0968,1.003
2.26,1.99753,1.00899,38.0824,37.0887,39.0769,1.00302
2.27,2.00045,1.00905,38.0624,37.0687,39.0568,1.00304
2.28,2.00336,1.00908,38.0424,37.0488,39.0368,1.00304
2.29,2.00635,1.00906,38.0224,37.0287,39.0168,1.00304
2.3,2.00935,1.0091,38.0023,37.0087,38.9967,1.00307
2.31,2.01218,1.00915,37.9822,36.9886,38.9765,1.00307
2.32,2.01493,1.00914,37.962,36.9685,38.9564,1.00305
2.33,2.01769,1.00914,37.9419,36.9483,38.9363,1.00308
2.34,2.02061,1.0092,37.9217,36.9281,38.916,1.0031
2.35,2.02338,1.00923,37.9015,36.9079,38.8958,1.00309
2.36,2.02605,1.00921,37.8812,36.8877,38.8756,1.0031
2.37,2.02872,1.00926,37.8609,36.8674,38.8553,1.00312
2.38,2.03136,1.00931,37.8406,36.8472,38.8349,1.00312
2.39,2.03394,1.00929,37.8203,36.8268,38.8146,1.00311
2.4,2.03661,1.00932,37.8,36.8065,38.7943,1.00314
2.41,2.03939,1.00938,37.7796,36.7861,38.7738,1.00315
2.42,2.04188,1.00937,37.7592,36.7658,38.7534,1.00314
2.43,2.04453,1.00938,37.7387,36.7453,38.733,1.00316
2.44,2.04719,1.00944,37.7183,36.7249,38.7125,1.00318
2.45,2.04953,1.00946,37.6978,36.7044,38.692,1.00317
2.46,2.05202,1.00946,37.6773,36.6839,38.6715,1.00318
2.47,2.05451,1.00951,37.6568,36.6634,38.6509,1.0032
2.48,2.05694,1.00954,37.6362,36.6429,38.6303,1.0032
2.49,2.05942,1.00952,37.6156,36.6223,38.6098,1.0032
2.5,2.06191,1.00956,37.595,36.6017,38.5892,1.00322
2.51,2.06427,1.0096,37.5744,36.5811,38.5685,1.00322
2.52,2.06665,1.00958,37.5537,36.5605,38.5478,1.00321
2.53,2.06909,1.0096,37.5331,36.5398,38.5272,1.00323
2.54,2.07139,1.00965,37.5124,36.5191,38.5064,1.00324
2.55,2.07364,1.00963,37.4916,36.4984,38.4857,1.00323
2.56,2.07594,1.00965,37.4709,36.4777,38.465,1.00326
2.57,2.07813,1.00972,37.4501,36.4569,38.4441,1.00326
2.58,2.08038,1.0097,37.4293,36.4361,38.4234,1.00325
2.59,2.08266,1.00973,37.4085,36.4154,38.4026,1.00328
2.6,2.08503,1.0098,37.3877,36.3945,38.3816,1.00328
2.61,2.08713,1.00976,37.3668,36.3737,38.3608,1.00327
2.62,2.08934,1.00979,37.3459,36.3528,38.34,1.00331
2.63,2.09139,1.00986,37.325,36.3319,38.3189,1.00331
2.64,2.0935,1.00982,37.3041,36.311,38.2981,1.0033
2.65,2.09574,1.00984,37.2832,36.2901,38.2772,1.00332
2.66,2.09779,1.0099,37.2622,36.2691,38.2561,1.00332
2.67,2.09994,1.00987,37.2412,36.2481,38.2351,1.00331
2.68,2.10202,1.00989,37.2202,36.2271,38.2142,1.00334
2.69,2.10398,1.00994,37.1992,36.2061,38.193,1.00333
2.7,2.10598,1.00991,37.1781,36.1851,38.172,1.00333
2.71,2.10806,1.00995,37.157,36.164,38.151,1.00335
2.72,2.11,1.01,37.1359,36.143,38.1298,1.00334
2.73,2.11209,1.00997,37.1148,36.1218,38.1087,1.00335
2.74,2.11408,1.01001,37.0937,36.1007,38.0876,1.00337
2.75,2.11583,1.01004,37.0726,36.0796,38.0664,1.00336
2.76,2.11799,1.01002,37.0514,36.0584,38.0453,1.00338
2.77,2.11997,1.01006,37.0302,36.0373,38.0241,1.00339
2.78,2.12183,1.01008,37.009,36.0161,38.0028,1.00337
2.79,2.12375,1.01008,36.9878,35.9948,37.9816,1.0034
2.8,2.1256,1.01013,36.9665,35.9736,37.9603,1.00341
2.81,2.12729,1.01013,36.9452,35.9524,37.939,1.00339
2.82,2.12923,1.01014,36.924,35.9311,37.9178,1.00343
2.83,2.13105,1.0102,36.9027,35.9098,37.8964,1.00342
2.84,2.13281,1.01018,36.8813,35.8885,37.8751,1.00342
2.85,2.13464,1.0102,36.86,35.8672,37.8538,1.00344
2.86,2.13626,1.01025,36.8387,35.8459,37.8324,1.00343
2.87,2.13799,1.01022,36.8173,35.8245,37.811,1.00344
2.88,2.13978,1.01024,36.7959,35.8031,37.7897,1.00346
2.89,2.1416,1.01025,36.7745,35.7817,37.7682,1.00343
2.9,2.14343,1.01025,36.7531,35.7603,37.7468,1.00346
2.91,2.14519,1.01029,36.7316,35.7388,37.7253,1.00346
2.92,2.14679,1.01029,36.7102,35.7174,37.7039,1.00345
2.93,2.14853,1.01029,36.6887,35.6959,37.6824,1.00348
2.94,2.15011,1.01034,36.6672,35.6745,37.6609,1.00347
2.95,2.15186,1.01033,36.6457,35.6529,37.6394,1.00348
2.96,2.15357,1.01036,36.6242,35.6314,37.6178,1.0035
2.97,2.15511,1.01038,36.6026,35.6099,37.5963,1.00347
2.98,2.15665,1.01038,36.5811,35.5883,37.5747,1.00351
2.99,2.15821,1.01043,36.5595,35.5668,37.5531,1.00351
3,2.15977,1.01043,36.5379,35.5452,37.5315,1.0035
3.01,2.16141,1.01045,36.5163,35.5236,37.5099,1.00353
3.02,2.16292,1.01049,36.4947,35.502,37.4882,1.00351
3.03,2.16453,1.01047,36.473,35.4804,37.4666,1.00353
3.04,2.16594,1.0105,36.4514,35.4587,37.445,1.00354
3.05,2.16756,1.01051,36.4297,35.4371,37.4233,1.00352
3.06,2.16915,1.01051,36.408,35.4154,37.4016,1.00355
3.07,2.17069,1.01056,36.3863,35.3937,37.3799,1.00354
3.08,2.17213,1.01054,36.3646,35.372,37.3582,1.00355
3.09,2.17354,1.01055,36.3429,35.3503,37.3365,1.00356
3.1,2.17484,1.01057,36.3211,35.3286,37.3147,1.00354
3.11,2.17635,1.01055,36.2994,35.3068,37.293,1.00357
3.12,2.1779,1.01059,36.2776,35.285,37.2711,1.00356
3.13,2.17939,1.0106,36.2558,35.2633,37.2494,1.00356
3.14,2.18094,1.01061,36.234,35.2415,37.2276,1.00358
3.15,2.18223,1.01062,36.2122,35.2197,37.2057,1.00356
3.16,2.18366,1.01062,36.1904,35.1978,37.1839,1.00359
3.17,2.18506,1.01065,36.1685,35.176,37.162,1.00359
3.18,2.18651,1.01067,36.1467,35.1542,37.1402,1.00359
3.19,2.18786,1.01068,36.1248,35.1323,37.1183,1.0036
3.2,2.18913,1.0107,36.1029,35.1105,37.0964,1.00358
3.21,2.19045,1.0107,36.081,35.0885,37.0745,1.00362
3.22,2.19172,1.01073,36.0591,35.0666,37.0526,1.00362
3.23,2.19315,1.01074,36.0372,35.0448,37.0307,1.00361
3.24,2.19444,1.01076,36.0152,35.0228,37.0087,1.00363
3.25,2.19567,1.01078,35.9933,35.0009,36.9867,1.0036
3.26,2.19704,1.01077,35.9713,34.9789,36.9648,1.00364
3.27,2.19828,1.0108,35.9494,34.9569,36.9428,1.00363
3.28,2.19959,1.0108,35.9274,34.935,36.9208,1.00363
3.29,2.2008,1.01081,35.9054,34.913,36.8988,1.00365
3.3,2.20197,1.01082,35.8834,34.891,36.8767,1.00362
3.31,2.20324,1.01081,35.8613,34.8689,36.8548,1.00366
3.32,2.20436,1.01085,35.8393,34.8469,36.8327,1.00365
3.33,2.20561,1.01085,35.8172,34.8249,36.8106,1.00365
3.34,2.20679,1.01086,35.7952,34.8028,36.7886,1.00366
3.35,2.20815,1.01086,35.7731,34.7808,36.7665,1.00364
3.36,2.20949,1.01087,35.751,34.7587,36.7444,1.00367
3.37,2.21063,1.0109,35.7289,34.7366,36.7223,1.00365
3.38,2.21173,1.01089,35.7068,34.7145,36.7002,1.00368
3.39,2.21293,1.0109,35.6847,34.6923,36.678,1.00368
3.4,2.21407,1.01093,35.6625,34.6702,36.6559,1.00367
3.41,2.21537,1.01094,35.6404,34.6481,36.6337,1.00369
3.42,2.21646,1.01095,35.6182,34.626,36.6115,1.00367
3.43,2.21758,1.01095,35.5961,34.6038,36.5894,1.0037
3.44,2.21855,1.01098,35.5739,34.5816,36.5672,1.0037
3.45,2.21969,1.01099,35.5517,34.5594,36.545,1.0037
3.46,2.22077,1.011,35.5295,34.5372,36.5228,1.00371
3.47,2.2219,1.01102,35.5073,34.5151,36.5006,1.00369
3.48,2.22305,1.01102,35.4851,34.4928,36.4784,1.00372
3.49,2.224,1.01105,35.4628,34.4706,36.4561,1.0037
3.5,2.22542,1.01103,35.4406,34.4483,36.4339,1.00372
3.51,2.22647,1.01104,35.4183,34.4261,36.4116,1.00372
3.52,2.2275,1.01107,35.396,34.4039,36.3893,1.00372
3.53,2.22852,1.01108,35.3738,34.3815,36.367,1.00374
3.54,2.2294,1.01108,35.3515,34.3593,36.3447,1.00371
3.55,2.23034,1.01108,35.3292,34.337,36.3225,1.00375
3.56,2.23125,1.0111,35.3069,34.3147,36.3001,1.00373
3.57,2.23229,1.01109,35.2846,34.2924,36.2778,1.00375
3.58,2.23334,1.0111,35.2622,34.27,36.2555,1.00375
3.59,2.23434,1.01113,35.2399,34.2477,36.2331,1.00374
3.6,2.23525,1.01114,35.2175,34.2254,36.2108,1.00376
3.61,2.23615,1.01115,35.1952,34.2031,36.1884,1.00373
3.62,2.23715,1.01114,35.1728,34.1807,36.1661,1.00377
3.63,2.23817,1.01117,35.1504,34.1583,36.1436,1.00375
3.64,2.23912,1.01117,35.1281,34.1359,36.1213,1.00377
3.65,2.24002,1.01117,35.1057,34.1135,36.0988,1.00377
3.66,2.24102,1.0112,35.0833,34.0912,36.0765,1.00377
3.67,2.24189,1.01121,35.0608,34.0687,36.054,1.00378
3.68,2.24279,1.01121,35.0384,34.0463,36.0316,1.00376
3.69,2.2438,1.01121,35.016,34.0239,36.0092,1.00379
3.7,2.24467,1.01123,34.9935,34.0015,35.9867,1.00376
3.71,2.24565,1.01122,34.9711,33.979,35.9643,1.00379
3.72,2.24641,1.01124,34.9486,33.9565,35.9418,1.00378
3.73,2.24734,1.01125,34.9262,33.9341,35.9193,1.00379
3.74,2.24822,1.01126,34.9037,33.9116,35.8968,1.0038
3.75,2.24904,1.01128,34.8812,33.8892,35.8743,1.00379
3.76,2.24984,1.01128,34.8587,33.8666,35.8519,1.00381
3.77,2.25057,1.01129,34.8362,33.8442,35.8293,1.00378
3.78,2.25141,1.01129,34.8137,33.8216,35.8069,1.00382
3.79,2.25225,1.0113,34.7912,33.7991,35.7843,1.0038
3.8,2.2533,1.0113,34.7686,33.7766,35.7618,1.00382
