time,velocity,ratio,centerX,Xmax,Xmin,Ymax
0,0,1,2,1,3,1
0.01,0.0188446,1,1.99991,0.999915,2.99991,1
0.02,0.0375033,1.00003,1.99964,0.999653,2.99961,1.00001
0.03,0.0559568,1.00006,1.99917,0.999217,2.99913,1.00001
0.04,0.074204,1.0001,1.99853,0.998608,2.99846,1.00002
0.05,0.0922792,1.00015,1.99771,0.997828,2.9976,1.00003
0.06,0.110169,1.0002,1.9967,0.996876,2.99656,1.00005
0.07,0.12787,1.00027,1.99552,0.995763,2.99534,1.00006
0.08,0.145388,1.00035,1.99416,0.994491,2.99393,1.00008
0.09,0.162724,1.00045,1.99263,0.993057,2.99235,1.00009
0.1,0.179889,1.00057,1.99092,0.991463,2.9906,1.00014
0.11,0.196861,1.00071,1.98904,0.989711,2.98866,1.00018
0.12,0.213341,1.00086,1.987,0.987813,2.98656,1.00024
0.13,0.22984,1.00104,1.98479,0.985779,2.98429,1.00029
0.14,0.246284,1.00123,1.98242,0.983602,2.98185,1.00035
0.15,0.262437,1.00146,1.97988,0.981278,2.9792,1.00042
0.16,0.278509,1.00171,1.97719,0.978813,2.97637,1.00048
0.17,0.294329,1.00202,1.97433,0.976211,2.97334,1.00059
0.18,0.310048,1.00237,1.97131,0.97347,2.97013,1.0007
0.19,0.325534,1.00275,1.96814,0.970603,2.96676,1.00082
0.2,0.340957,1.00316,1.96482,0.967609,2.96317,1.00094
0.21,0.35604,1.00361,1.96134,0.964477,2.95939,1.00105
0.22,0.370911,1.00414,1.95771,0.961222,2.95543,1.00123
0.23,0.38535,1.00469,1.95393,0.957864,2.95132,1.00141
0.24,0.399979,1.00528,1.95001,0.954381,2.94702,1.00158
0.25,0.414247,1.00592,1.94595,0.950785,2.94252,1.00176
0.26,0.428539,1.00663,1.94174,0.947061,2.93785,1.002
0.27,0.4426,1.00736,1.93739,0.943211,2.93304,1.00224
0.28,0.456351,1.00818,1.9329,0.939254,2.92795,1.00248
0.29,0.47003,1.00905,1.92828,0.935196,2.92271,1.00276
0.3,0.48341,1.00995,1.92351,0.931045,2.9174,1.00306
0.31,0.496628,1.01092,1.91862,0.926799,2.91186,1.00337
0.32,0.509757,1.01197,1.91359,0.92246,2.90608,1.00369
0.33,0.522667,1.0131,1.90844,0.918008,2.90017,1.00406
0.34,0.53523,1.01432,1.90315,0.913475,2.89398,1.00444
0.35,0.547806,1.01559,1.89774,0.908854,2.88764,1.00482
0.36,0.560108,1.01695,1.89221,0.90414,2.88115,1.00526
0.37,0.572178,1.0184,1.88655,0.89933,2.87439,1.0057
0.38,0.583237,1.01988,1.88078,0.894461,2.86754,1.00615
0.39,0.594707,1.02155,1.8749,0.889525,2.86037,1.00666
0.4,0.605963,1.02315,1.8689,0.884491,2.85321,1.00715
0.41,0.616781,1.02486,1.86279,0.879367,2.84587,1.00769
0.42,0.62768,1.02667,1.85657,0.874165,2.8383,1.00826
0.43,0.638293,1.02857,1.85025,0.868922,2.83051,1.00881
0.44,0.648543,1.03064,1.84382,0.863613,2.8225,1.00945
0.45,0.658824,1.03276,1.83728,0.858264,2.81433,1.01007
0.46,0.668902,1.03496,1.83065,0.852816,2.80597,1.01072
0.47,0.678586,1.0373,1.82392,0.847307,2.79738,1.01141
0.48,0.688211,1.03964,1.81709,0.841745,2.78872,1.01208
0.49,0.697377,1.04212,1.81016,0.836109,2.77991,1.01283
0.5,0.706474,1.04465,1.80315,0.830427,2.77092,1.01357
0.51,0.715367,1.04735,1.79604,0.824708,2.76167,1.01434
0.52,0.723937,1.0501,1.78885,0.818898,2.75232,1.01514
0.53,0.732348,1.05294,1.78157,0.813021,2.74274,1.01594
0.54,0.740263,1.05592,1.77421,0.807111,2.733,1.01679
0.55,0.748277,1.0589,1.76677,0.80115,2.72319,1.01762
0.56,0.755946,1.06203,1.75925,0.795165,2.71326,1.01854
0.57,0.763516,1.06519,1.75166,0.789106,2.70317,1.01942
0.58,0.770812,1.06854,1.74399,0.783013,2.69286,1.02037
0.59,0.777914,1.07196,1.73625,0.776882,2.68238,1.02131
0.6,0.784609,1.07548,1.72844,0.770707,2.67179,1.02228
0.61,0.791264,1.07911,1.72057,0.764527,2.66104,1.02328
0.62,0.797642,1.08276,1.71262,0.758299,2.65029,1.02428
0.63,0.803812,1.0865,1.70462,0.751996,2.6394,1.02533
0.64,0.809273,1.09033,1.69656,0.745673,2.62834,1.02636
0.65,0.815024,1.09432,1.68844,0.739346,2.61714,1.02745
0.66,0.820412,1.09836,1.68026,0.733021,2.60585,1.02852
0.67,0.825703,1.1025,1.67204,0.726636,2.5945,1.02966
0.68,0.830891,1.10661,1.66376,0.720238,2.58315,1.03075
0.69,0.83578,1.11088,1.65543,0.713812,2.57167,1.03193
0.7,0.840383,1.11518,1.64705,0.707354,2.56007,1.03305
0.71,0.844965,1.11965,1.63862,0.700905,2.54837,1.03426
0.72,0.849296,1.12411,1.63015,0.694398,2.53659,1.03542
0.73,0.853423,1.12866,1.62164,0.687858,2.52481,1.03665
0.74,0.85728,1.1332,1.61309,0.681306,2.51302,1.03785
0.75,0.860994,1.13789,1.6045,0.674746,2.50114,1.03911
0.76,0.86464,1.14261,1.59588,0.668181,2.48918,1.04034
0.77,0.868068,1.14744,1.58721,0.661577,2.47715,1.04164
0.78,0.871383,1.15226,1.57852,0.654986,2.46515,1.04289
0.79,0.874383,1.15714,1.56979,0.648365,2.45319,1.04421
0.8,0.877365,1.16205,1.56104,0.641764,2.44117,1.0455
0.81,0.880092,1.1671,1.55225,0.635162,2.42908,1.04685
0.82,0.88274,1.17211,1.54344,0.628513,2.41698,1.04814
0.83,0.88513,1.17723,1.5346,0.621849,2.40487,1.04951
0.84,0.887425,1.18232,1.52574,0.615222,2.39281,1.05084
0.85,0.889449,1.18753,1.51686,0.608601,2.38076,1.05224
0.86,0.891192,1.1927,1.50796,0.601962,2.3687,1.0536
0.87,0.892964,1.198,1.49904,0.595322,2.35664,1.05503
0.88,0.894521,1.20328,1.4901,0.588682,2.34457,1.05641
0.89,0.896109,1.20863,1.48115,0.582036,2.33255,1.05786
0.9,0.897497,1.21396,1.47218,0.575424,2.32058,1.05927
0.91,0.898853,1.21933,1.4632,0.568766,2.30862,1.06073
0.92,0.900075,1.22474,1.45421,0.562101,2.29663,1.06217
0.93,0.901047,1.23019,1.44521,0.555453,2.28466,1.06363
0.94,0.902028,1.23567,1.43619,0.548824,2.27273,1.06509
0.95,0.902851,1.24113,1.42717,0.542208,2.26088,1.06655
0.96,0.903537,1.24665,1.41814,0.535591,2.24906,1.06805
0.97,0.904013,1.25217,1.4091,0.529002,2.23725,1.06951
0.98,0.90447,1.25778,1.40006,0.522414,2.22549,1.07105
0.99,0.904785,1.26336,1.39102,0.515878,2.21377,1.07252
1,0.904653,1.26902,1.38197,0.509355,2.20212,1.07407
1.01,0.904739,1.2746,1.37293,0.502806,2.19053,1.07558
1.02,0.90477,1.28025,1.36388,0.496282,2.17897,1.07713
1.03,0.904776,1.28595,1.35483,0.489809,2.16743,1.07866
1.04,0.904579,1.29168,1.34579,0.483385,2.15591,1.08019
1.05,0.904294,1.29746,1.33674,0.476947,2.14445,1.08176
1.06,0.903882,1.30316,1.3277,0.470553,2.13308,1.08327
1.07,0.903392,1.30898,1.31867,0.46417,2.12176,1.08488
1.08,0.902757,1.31479,1.30964,0.457827,2.11045,1.08642
1.09,0.901834,1.32067,1.30062,0.451534,2.0992,1.08802
1.1,0.900894,1.32653,1.29161,0.445231,2.08801,1.0896
1.11,0.899987,1.33236,1.2826,0.438941,2.07688,1.09117
1.12,0.89892,1.33827,1.27361,0.432694,2.06582,1.09278
1.13,0.897799,1.34411,1.26463,0.426486,2.05481,1.09432
1.14,0.896458,1.3501,1.25566,0.420333,2.04383,1.09594
1.15,0.895156,1.35607,1.2467,0.414186,2.03287,1.09752
1.16,0.893635,1.36209,1.23776,0.408096,2.02195,1.09911
1.17,0.892116,1.36813,1.22883,0.402035,2.01113,1.10072
1.18,0.890296,1.37413,1.21992,0.396033,2.00036,1.10228
1.19,0.88849,1.3803,1.21102,0.390097,1.98963,1.10391
1.2,0.886464,1.38642,1.20215,0.384188,1.97894,1.1055
1.21,0.884373,1.39254,1.1933,0.378293,1.96832,1.10709
1.22,0.882283,1.39871,1.18446,0.372425,1.95774,1.1087
1.23,0.879906,1.40479,1.17566,0.366629,1.94727,1.11024
1.24,0.877647,1.41105,1.16687,0.360912,1.93685,1.11186
1.25,0.875161,1.4173,1.1581,0.355232,1.92644,1.11344
1.26,0.872633,1.42359,1.14937,0.349617,1.9161,1.11502
1.27,0.869992,1.42997,1.14065,0.344034,1.90579,1.11663
1.28,0.867234,1.43633,1.13197,0.338521,1.89554,1.11819
1.29,0.864369,1.44275,1.12331,0.333058,1.88537,1.1198
1.3,0.861367,1.44918,1.11468,0.327663,1.87527,1.12138
1.31,0.858253,1.45562,1.10609,0.322314,1.86519,1.12292
1.32,0.855084,1.46215,1.09752,0.316989,1.85518,1.12454
1.33,0.851671,1.46861,1.08899,0.311708,1.84524,1.12608
1.34,0.848289,1.47517,1.08049,0.306517,1.83534,1.12764
1.35,0.844787,1.48178,1.07202,0.301396,1.82554,1.12922
1.36,0.841213,1.48835,1.06359,0.296338,1.81579,1.13074
1.37,0.837474,1.49509,1.0552,0.291332,1.80606,1.13233
1.38,0.83356,1.5018,1.04684,0.286374,1.79641,1.13388
1.39,0.829578,1.50856,1.03853,0.281502,1.78679,1.13541
1.4,0.82544,1.51544,1.03025,0.276694,1.77723,1.13699
1.41,0.82129,1.52224,1.02202,0.271945,1.76777,1.1385
1.42,0.816941,1.52919,1.01383,0.2673,1.75835,1.14005
1.43,0.812571,1.53617,1.00568,0.262725,1.74901,1.14159
1.44,0.807899,1.54308,0.997578,0.258176,1.73971,1.14306
1.45,0.803219,1.55019,0.989523,0.253687,1.73045,1.14463
1.46,0.798422,1.55725,0.981514,0.249267,1.72127,1.14614
1.47,0.793504,1.5644,0.973555,0.244945,1.71214,1.14764
1.48,0.788575,1.57162,0.965644,0.240697,1.70311,1.14918
1.49,0.783441,1.57882,0.957783,0.236535,1.69414,1.15065
1.5,0.778273,1.58623,0.949975,0.232469,1.68521,1.15219
1.51,0.772875,1.59357,0.942218,0.228439,1.67636,1.15368
1.52,0.767437,1.60102,0.934516,0.224514,1.66755,1.15516
1.53,0.761835,1.60855,0.926869,0.220665,1.65882,1.15667
1.54,0.756193,1.61604,0.919279,0.2169,1.65016,1.1581
1.55,0.7504,1.6237,0.911745,0.213219,1.64158,1.15962
1.56,0.744378,1.63135,0.904271,0.209609,1.63307,1.16108
1.57,0.738409,1.63911,0.896856,0.206102,1.6246,1.16254
1.58,0.732216,1.64701,0.889502,0.202696,1.61621,1.16404
1.59,0.725968,1.65484,0.882211,0.199337,1.60787,1.16545
1.6,0.719549,1.66284,0.874982,0.196026,1.59961,1.16697
1.61,0.713078,1.67079,0.867818,0.192791,1.59142,1.1684
1.62,0.706432,1.6788,0.860719,0.189629,1.58334,1.16988
1.63,0.699692,1.68689,0.853688,0.186551,1.5753,1.17134
1.64,0.69273,1.69502,0.846725,0.183587,1.56736,1.17276
1.65,0.685732,1.70331,0.839832,0.180712,1.55947,1.17422
1.66,0.678683,1.71152,0.833008,0.177905,1.55165,1.1756
1.67,0.671445,1.72,0.826257,0.175204,1.54391,1.17708
1.68,0.664063,1.72838,0.819578,0.17257,1.53624,1.17847
1.69,0.656589,1.73696,0.812974,0.170034,1.52865,1.17993
1.7,0.64905,1.74543,0.806444,0.16754,1.52117,1.18133
1.71,0.641335,1.75403,0.799991,0.165129,1.51375,1.18276
1.72,0.633504,1.7626,0.793615,0.162766,1.50642,1.18416
1.73,0.625574,1.77131,0.787318,0.160514,1.49916,1.18558
1.74,0.617524,1.78004,0.781101,0.158342,1.492,1.18698
1.75,0.609353,1.78882,0.774965,0.156228,1.48491,1.18838
1.76,0.60104,1.79761,0.768912,0.154199,1.47792,1.18977
1.77,0.592652,1.80648,0.762942,0.152237,1.47099,1.19115
1.78,0.584183,1.8153,0.757056,0.150336,1.4642,1.19253
1.79,0.575573,1.82422,0.751254,0.148506,1.45745,1.19391
1.8,0.566803,1.83313,0.74554,0.146754,1.45083,1.19527
1.81,0.557971,1.84214,0.739914,0.145071,1.44427,1.19665
1.82,0.549051,1.8511,0.734377,0.143462,1.43781,1.19799
1.83,0.540044,1.86017,0.728929,0.141925,1.43145,1.19937
1.84,0.530914,1.86914,0.723573,0.140455,1.42517,1.20066
1.85,0.521631,1.87822,0.718309,0.139039,1.41902,1.20205
1.86,0.512285,1.88717,0.713137,0.137671,1.41293,1.20332
1.87,0.50286,1.89618,0.708059,0.136353,1.40697,1.20466
1.88,0.493389,1.90505,0.703074,0.135079,1.40111,1.20592
1.89,0.483797,1.91385,0.698185,0.133769,1.39531,1.2072
1.9,0.474152,1.92246,0.693392,0.132428,1.38965,1.20848
1.91,0.464443,1.93086,0.688696,0.131047,1.38405,1.20969
1.92,0.454655,1.93923,0.684098,0.129632,1.37856,1.21098
1.93,0.4448,1.94727,0.679599,0.128184,1.3732,1.21219
1.94,0.434851,1.95521,0.675199,0.126708,1.36791,1.2134
1.95,0.424894,1.96296,0.6709,0.125202,1.36275,1.21463
1.96,0.414844,1.9704,0.6667,0.123673,1.35772,1.21578
1.97,0.404908,1.97784,0.662597,0.122122,1.35274,1.21698
1.98,0.394863,1.98504,0.658596,0.120559,1.3479,1.21816
1.99,0.384699,1.99188,0.654695,0.118978,1.34319,1.21924
2,0.374535,1.99867,0.650897,0.117386,1.33856,1.22036
2.01,0.364353,2.00521,0.6472,0.11579,1.33405,1.22144
2.02,0.354104,2.01142,0.643607,0.114189,1.32969,1.22244
2.03,0.343941,2.01756,0.640116,0.11259,1.32542,1.22348
2.04,0.333746,2.02358,0.636728,0.11099,1.32124,1.22452
2.05,0.323564,2.02927,0.633442,0.109397,1.3172,1.22548
2.06,0.313451,2.03469,0.630257,0.107802,1.3133,1.2264
2.07,0.303324,2.0401,0.627171,0.106216,1.30946,1.22737
2.08,0.293221,2.04519,0.624186,0.104622,1.30576,1.22827
2.09,0.283092,2.04995,0.621302,0.103035,1.3022,1.22912
2.1,0.273032,2.05446,0.618519,0.101464,1.29877,1.2299
2.11,0.262983,2.059,0.615837,0.0999185,1.2954,1.23075
2.12,0.253029,2.06335,0.613256,0.0983875,1.29211,1.23154
2.13,0.24315,2.06741,0.610775,0.0968859,1.28897,1.23226
2.14,0.233329,2.07116,0.608392,0.0954007,1.28596,1.23292
2.15,0.223561,2.07469,0.606108,0.0939651,1.28308,1.23352
2.16,0.213885,2.07808,0.603921,0.092518,1.2803,1.23415
2.17,0.204331,2.08125,0.601828,0.091099,1.27763,1.23474
2.18,0.194798,2.08407,0.599831,0.0896931,1.27512,1.23525
2.19,0.185302,2.08659,0.597928,0.0882979,1.27274,1.23572
2.2,0.176007,2.08885,0.596119,0.0869378,1.27048,1.23612
2.21,0.166783,2.09089,0.594403,0.0856201,1.26834,1.23647
2.22,0.157634,2.09268,0.592779,0.0843049,1.2663,1.23677
2.23,0.148603,2.09435,0.591247,0.0830416,1.26436,1.23705
2.24,0.139756,2.09573,0.589804,0.0818026,1.26255,1.23727
2.25,0.131002,2.0968,0.58845,0.0805795,1.26088,1.23743
2.26,0.122417,2.09766,0.587182,0.0794053,1.25934,1.23755
2.27,0.113921,2.09832,0.586001,0.078276,1.25791,1.23762
2.28,0.105663,2.09872,0.584902,0.0771673,1.25659,1.23764
2.29,0.0974284,2.09881,0.583885,0.0760428,1.25538,1.23761
2.3,0.089361,2.09865,0.58295,0.074941,1.25428,1.23751
2.31,0.0813874,2.09829,0.582094,0.073877,1.25329,1.23737
2.32,0.0735488,2.09768,0.581318,0.0728369,1.25241,1.23719
2.33,0.0659051,2.09685,0.580619,0.0718178,1.25163,1.23695
2.34,0.0583808,2.09576,0.579996,0.0708233,1.25098,1.23666
2.35,0.0510074,2.09449,0.579447,0.0698861,1.25044,1.23632
2.36,0.0438318,2.09296,0.578972,0.0689637,1.25001,1.23594
2.37,0.0367362,2.09111,0.578568,0.0680586,1.24974,1.23551
2.38,0.0298511,2.08903,0.578234,0.0671769,1.24958,1.23504
2.39,0.0231307,2.08678,0.577968,0.0663253,1.24953,1.23454
2.4,0.0165212,2.0843,0.577769,0.0654841,1.24956,1.23399
2.41,0.0100854,2.08163,0.577636,0.0646641,1.24969,1.23339
2.42,0.00377851,2.07873,0.577566,0.0638565,1.24992,1.23275
2.43,-0.00236403,2.07567,0.577559,0.0630803,1.25023,1.23206
2.44,-0.00839203,2.07245,0.577612,0.0623311,1.25061,1.23132
2.45,-0.0142653,2.06903,0.577725,0.0616045,1.2511,1.23054
2.46,-0.0200179,2.06535,0.577895,0.0608858,1.2517,1.22972
2.47,-0.025648,2.0615,0.578123,0.0601935,1.25239,1.22886
2.48,-0.0310995,2.0574,0.578405,0.0595028,1.25319,1.22795
2.49,-0.0364648,2.05309,0.578742,0.0588263,1.2541,1.227
2.5,-0.0416923,2.04855,0.579131,0.0581684,1.25512,1.22601
2.51,-0.0467819,2.04379,0.579572,0.0575228,1.25626,1.22498
2.52,-0.0517101,2.0389,0.580064,0.0569036,1.25746,1.22391
2.53,-0.0565057,2.03385,0.580604,0.056301,1.25876,1.22281
2.54,-0.0611231,2.02861,0.581191,0.0557039,1.26015,1.22167
2.55,-0.065567,2.02319,0.581823,0.0551204,1.26164,1.22051
2.56,-0.069972,2.01759,0.5825,0.0545549,1.26324,1.21931
2.57,-0.0741932,2.01186,0.58322,0.0540065,1.26491,1.21808
2.58,-0.0783133,2.00599,0.583981,0.0534806,1.26667,1.21682
2.59,-0.0822938,1.99997,0.584783,0.0529792,1.26853,1.21553
2.6,-0.0861361,1.9938,0.585625,0.0525002,1.27048,1.21421
2.61,-0.0898953,1.98752,0.586504,0.0520403,1.27254,1.21288
2.62,-0.0934738,1.98116,0.58742,0.0515999,1.27467,1.21155
2.63,-0.0970376,1.97471,0.588372,0.0511812,1.27687,1.2102
2.64,-0.100405,1.96819,0.589358,0.0507824,1.27915,1.20883
2.65,-0.103707,1.96154,0.590378,0.0503661,1.2815,1.20746
2.66,-0.106774,1.95477,0.59143,0.0499538,1.28393,1.20607
2.67,-0.109823,1.94789,0.592512,0.049558,1.28645,1.20467
2.68,-0.112656,1.94094,0.593624,0.0491827,1.28904,1.20324
2.69,-0.115435,1.93393,0.594764,0.0488292,1.29168,1.20179
2.7,-0.118196,1.92686,0.595932,0.0484923,1.29438,1.20032
2.71,-0.120876,1.91973,0.597127,0.0481705,1.29713,1.19883
2.72,-0.12339,1.91254,0.598347,0.0478715,1.29996,1.19733
2.73,-0.125832,1.90528,0.599593,0.0475978,1.30287,1.19583
2.74,-0.128109,1.89801,0.600863,0.0473365,1.30586,1.19434
2.75,-0.130304,1.89069,0.602154,0.0470779,1.3089,1.19286
2.76,-0.132269,1.8833,0.603466,0.0467944,1.312,1.19139
2.77,-0.134209,1.8759,0.604798,0.0465263,1.31514,1.1899
2.78,-0.136119,1.86848,0.606149,0.046277,1.31834,1.18841
2.79,-0.137951,1.86106,0.607519,0.0460453,1.32157,1.18691
2.8,-0.139765,1.8536,0.608907,0.0458325,1.32485,1.1854
2.81,-0.141451,1.84617,0.610313,0.0456447,1.32816,1.18387
2.82,-0.142951,1.83872,0.611734,0.0454773,1.33153,1.18234
2.83,-0.144387,1.83126,0.61317,0.0453143,1.33494,1.18082
2.84,-0.145714,1.82381,0.614621,0.0451273,1.33837,1.17932
2.85,-0.146947,1.81639,0.616083,0.0449413,1.34185,1.17785
2.86,-0.147945,1.80899,0.617557,0.0447719,1.34537,1.17638
2.87,-0.149015,1.8016,0.619041,0.044618,1.34892,1.17492
2.88,-0.149996,1.79426,0.620536,0.0444803,1.35249,1.17345
2.89,-0.150862,1.78696,0.622039,0.0443615,1.35608,1.17199
2.9,-0.151548,1.77971,0.623551,0.0442618,1.35967,1.17053
2.91,-0.152137,1.77245,0.625069,0.0441484,1.3633,1.16907
2.92,-0.152672,1.76515,0.626593,0.0439994,1.36697,1.16762
2.93,-0.153143,1.75789,0.628121,0.0438653,1.37066,1.16618
2.94,-0.153515,1.75067,0.629654,0.043748,1.37438,1.16475
2.95,-0.153821,1.74356,0.63119,0.0436471,1.37809,1.16334
2.96,-0.154045,1.73655,0.632729,0.0435644,1.3818,1.16196
2.97,-0.154178,1.72963,0.63427,0.0435002,1.38549,1.16057
2.98,-0.154185,1.72271,0.635812,0.0434399,1.38922,1.15919
2.99,-0.154165,1.71579,0.637353,0.0433337,1.39294,1.15781
3,-0.15403,1.7089,0.638894,0.043239,1.39668,1.15645
3.01,-0.153836,1.70209,0.640433,0.0431581,1.40042,1.15509
3.02,-0.153578,1.69538,0.64197,0.0430952,1.40414,1.15374
3.03,-0.153245,1.68873,0.643504,0.0430491,1.40787,1.15241
3.04,-0.152799,1.68215,0.645034,0.0430193,1.4116,1.15108
3.05,-0.152299,1.67568,0.646559,0.0429955,1.41529,1.14977
3.06,-0.151691,1.66927,0.648079,0.0429231,1.41896,1.14849
3.07,-0.151013,1.66295,0.649592,0.0428594,1.4226,1.14722
3.08,-0.150258,1.65672,0.651099,0.0428104,1.42623,1.14597
3.09,-0.149574,1.65057,0.652597,0.0427765,1.42985,1.14473
3.1,-0.148706,1.64451,0.654089,0.0427542,1.43346,1.14351
3.11,-0.147761,1.63854,0.655571,0.042746,1.43704,1.1423
3.12,-0.146731,1.63268,0.657043,0.0427422,1.44058,1.14111
3.13,-0.145626,1.62682,0.658505,0.0426947,1.44409,1.13991
3.14,-0.144396,1.62109,0.659955,0.0426548,1.44755,1.13873
3.15,-0.143135,1.61543,0.661392,0.0426273,1.451,1.13756
3.16,-0.14181,1.60995,0.662817,0.0426084,1.45438,1.13644
3.17,-0.14042,1.60456,0.664228,0.0425983,1.45774,1.13534
3.18,-0.13898,1.59927,0.665625,0.0425977,1.46107,1.13427
3.19,-0.137469,1.59411,0.667007,0.0426042,1.46435,1.1332
3.2,-0.135916,1.58898,0.668374,0.0425616,1.46757,1.13216
3.21,-0.134287,1.58396,0.669725,0.0425308,1.47075,1.13112
3.22,-0.132613,1.57904,0.671059,0.0425075,1.47389,1.1301
3.23,-0.130868,1.57423,0.672376,0.042493,1.47697,1.1291
3.24,-0.12906,1.56955,0.673676,0.0424891,1.47999,1.12811
3.25,-0.127191,1.565,0.674957,0.042493,1.48294,1.12715
3.26,-0.12529,1.56056,0.676219,0.0425068,1.48583,1.1262
3.27,-0.123343,1.5562,0.677462,0.0424897,1.48869,1.12528
3.28,-0.121366,1.55193,0.678685,0.0424661,1.49149,1.1244
3.29,-0.119333,1.54777,0.679889,0.0424503,1.49425,1.12352
3.3,-0.117265,1.5437,0.681072,0.0424445,1.49695,1.12266
3.31,-0.115145,1.53974,0.682233,0.0424438,1.49959,1.12182
3.32,-0.112981,1.53592,0.683374,0.0424492,1.50215,1.121
3.33,-0.110771,1.53222,0.684492,0.0424615,1.50464,1.12019
3.34,-0.108538,1.52865,0.685589,0.0424808,1.50706,1.11941
3.35,-0.106251,1.52512,0.686662,0.0424533,1.50942,1.11865
3.36,-0.103941,1.52169,0.687713,0.0424331,1.51175,1.11792
3.37,-0.101615,1.51837,0.688741,0.042419,1.514,1.1172
3.38,-0.0992497,1.51517,0.689745,0.0424105,1.51618,1.1165
3.39,-0.0968606,1.51205,0.690725,0.0424082,1.51831,1.11582
3.4,-0.0944501,1.50903,0.691681,0.0424123,1.5204,1.11516
3.41,-0.0919681,1.50614,0.692613,0.0424251,1.52242,1.11454
3.42,-0.0894968,1.50335,0.69352,0.0424427,1.52438,1.11393
3.43,-0.0870226,1.50062,0.694403,0.0424203,1.52627,1.11334
3.44,-0.0845237,1.49798,0.69526,0.0423922,1.5281,1.11277
3.45,-0.0820124,1.49543,0.696093,0.0423683,1.52987,1.11223
3.46,-0.0794742,1.49298,0.6969,0.0423479,1.53158,1.1117
3.47,-0.0769162,1.49062,0.697681,0.0423303,1.53324,1.11119
3.48,-0.0743396,1.48835,0.698438,0.0423162,1.53485,1.1107
3.49,-0.0717716,1.48617,0.699168,0.0423059,1.53639,1.11023
3.5,-0.0691954,1.48408,0.699872,0.0423014,1.53788,1.10978
3.51,-0.0666219,1.48209,0.700551,0.042303,1.5393,1.10934
3.52,-0.064048,1.48015,0.701204,0.0422745,1.54065,1.10891
3.53,-0.061455,1.47829,0.701832,0.0422403,1.54195,1.10851
3.54,-0.0588724,1.47653,0.702433,0.0422105,1.54319,1.10812
3.55,-0.0562921,1.47484,0.703008,0.0421809,1.54436,1.10774
3.56,-0.053741,1.47324,0.703558,0.0421535,1.54548,1.10738
3.57,-0.051124,1.47174,0.704082,0.0421295,1.54654,1.10705
3.58,-0.0484849,1.47032,0.70458,0.0421067,1.54754,1.10673
