time,velocity,ratio,centerX,Xmax,Xmin,Ymax
0,0,1,8.5,7.5,9.5,1
0.01,0.0197691,1,8.4999,7.4999,9.4999,1
0.02,0.0393577,1,8.49961,7.49961,9.4996,1
0.03,0.0587235,1,8.49912,7.49912,9.49911,1
0.04,0.0778896,1.00001,8.49844,7.49845,9.49843,0.999997
0.05,0.0967958,1.00001,8.49757,7.49758,9.49756,0.999999
0.06,0.115567,1.00003,8.49651,7.49654,9.49649,1
0.07,0.134122,1.00005,8.49526,7.49531,9.49522,1.00001
0.08,0.152501,1.00007,8.49383,7.4939,9.49377,1.00001
0.09,0.170696,1.00009,8.49222,7.49231,9.49214,1
0.1,0.18872,1.00015,8.49043,7.49054,9.49031,1.00003
0.11,0.206727,1.00021,8.48845,7.48861,9.4883,1.00006
0.12,0.224433,1.00028,8.4863,7.4865,9.48611,1.00008
0.13,0.241959,1.00034,8.48397,7.48424,9.48374,1.0001
0.14,0.259338,1.00039,8.48146,7.48177,9.48122,1.00011
0.15,0.276514,1.00045,8.47879,7.47913,9.4785,1.00014
0.16,0.293517,1.00056,8.47594,7.47634,9.47558,1.00018
0.17,0.310386,1.00071,8.47292,7.4734,9.47246,1.00024
0.18,0.327083,1.00087,8.46974,7.47032,9.46915,1.00029
0.19,0.343646,1.00105,8.46639,7.46708,9.46565,1.00034
0.2,0.359998,1.00122,8.46287,7.46369,9.462,1.00037
0.21,0.37618,1.00138,8.45919,7.46011,9.45822,1.00044
0.22,0.392255,1.0016,8.45535,7.45638,9.45425,1.00053
0.23,0.408115,1.00182,8.45135,7.45252,9.45009,1.00061
0.24,0.423807,1.00208,8.44719,7.44853,9.44572,1.00067
0.25,0.439351,1.00234,8.44288,7.4444,9.44123,1.00075
0.26,0.454915,1.00262,8.43841,7.4401,9.43659,1.00086
0.27,0.470165,1.00292,8.43379,7.43568,9.43174,1.00095
0.28,0.485106,1.00324,8.42901,7.43112,9.42672,1.00103
0.29,0.500078,1.00355,8.42409,7.42638,9.42162,1.00116
0.3,0.514877,1.00387,8.41902,7.42149,9.41633,1.00128
0.31,0.529521,1.00419,8.4138,7.41647,9.41084,1.00137
0.32,0.544082,1.00459,8.40843,7.41136,9.40521,1.0015
0.33,0.558448,1.00493,8.40292,7.40608,9.39949,1.00162
0.34,0.572638,1.00527,8.39727,7.40062,9.39357,1.00173
0.35,0.586762,1.00566,8.39147,7.39507,9.38754,1.00187
0.36,0.600714,1.00602,8.38553,7.38939,9.38139,1.00199
0.37,0.614578,1.0064,8.37946,7.38355,9.37505,1.00212
0.38,0.628326,1.0068,8.37325,7.3776,9.36858,1.00226
0.39,0.641884,1.00713,8.3669,7.37151,9.36202,1.00235
0.4,0.655548,1.00756,8.36041,7.3653,9.35527,1.0025
0.41,0.668884,1.00789,8.35379,7.35892,9.34845,1.00261
0.42,0.682139,1.00828,8.34704,7.3524,9.34143,1.00275
0.43,0.695226,1.00866,8.34015,7.34579,9.33428,1.00286
0.44,0.708212,1.00899,8.33313,7.33899,9.32706,1.00297
0.45,0.721058,1.00937,8.32599,7.33207,9.31964,1.0031
0.46,0.733802,1.00969,8.31872,7.32503,9.31217,1.0032
0.47,0.746491,1.01007,8.31132,7.31784,9.3045,1.00333
0.48,0.759006,1.01035,8.30379,7.31055,9.29681,1.00341
0.49,0.771487,1.0107,8.29614,7.30309,9.28894,1.00355
0.5,0.783819,1.01099,8.28836,7.29555,9.28098,1.00363
0.51,0.795913,1.01135,8.28047,7.28785,9.27286,1.00376
0.52,0.80818,1.01161,8.27245,7.28003,9.26467,1.00384
0.53,0.820267,1.01195,8.26431,7.27209,9.25632,1.00397
0.54,0.832242,1.01221,8.25604,7.26402,9.24789,1.00405
0.55,0.844144,1.01255,8.24766,7.25583,9.23926,1.00416
0.56,0.855893,1.0128,8.23916,7.24752,9.23062,1.00425
0.57,0.867431,1.01312,8.23055,7.23909,9.22178,1.00435
0.58,0.878943,1.0134,8.22182,7.23056,9.21289,1.00444
0.59,0.890343,1.01369,8.21297,7.2219,9.20381,1.00453
0.6,0.901778,1.01398,8.20401,7.21314,9.19472,1.00464
0.61,0.912984,1.01425,8.19494,7.20425,9.18543,1.0047
0.62,0.924127,1.01456,8.18576,7.19527,9.17608,1.00483
0.63,0.935134,1.01484,8.17646,7.18617,9.16661,1.00491
0.64,0.946059,1.01515,8.16706,7.17697,9.15701,1.00501
0.65,0.956981,1.01545,8.15754,7.16767,9.14733,1.00512
0.66,0.967706,1.01575,8.14792,7.15824,9.13748,1.00521
0.67,0.978376,1.01608,8.13819,7.14874,9.12759,1.00534
0.68,0.988963,1.01642,8.12836,7.1391,9.1175,1.00544
0.69,0.999248,1.01673,8.11842,7.12938,9.10736,1.00554
0.7,1.00955,1.01706,8.10837,7.11954,9.09715,1.00567
0.71,1.0197,1.01742,8.09823,7.10962,9.08674,1.00578
0.72,1.0298,1.01777,8.08798,7.0996,9.07627,1.00589
0.73,1.03987,1.01813,8.07763,7.08946,9.06569,1.00602
0.74,1.04985,1.01851,8.06719,7.07924,9.05494,1.00613
0.75,1.05975,1.01885,8.05664,7.06893,9.04419,1.00624
0.76,1.06942,1.01924,8.04599,7.05852,9.03329,1.00638
0.77,1.07913,1.01964,8.03525,7.04803,9.02225,1.0065
0.78,1.08874,1.01999,8.02441,7.03745,9.01121,1.00661
0.79,1.09826,1.0204,8.01348,7.02677,9.00002,1.00675
0.8,1.10773,1.02083,8.00245,7.01599,8.98867,1.00688
0.81,1.11699,1.02117,7.99133,7.00513,8.97735,1.00699
0.82,1.1262,1.02157,7.98011,6.99417,8.96591,1.00714
0.83,1.13533,1.022,7.9688,6.98312,8.95432,1.00728
0.84,1.14439,1.02238,7.95741,6.97199,8.9427,1.00741
0.85,1.15344,1.02275,7.94592,6.96077,8.931,1.00753
0.86,1.16242,1.02315,7.93434,6.94944,8.9192,1.00768
0.87,1.17117,1.02355,7.92267,6.93801,8.90726,1.00781
0.88,1.17994,1.02394,7.91092,6.92652,8.89527,1.00793
0.89,1.18859,1.02429,7.89908,6.91494,8.88323,1.00805
0.9,1.19724,1.02469,7.88715,6.90325,8.87105,1.0082
0.91,1.20598,1.02509,7.87513,6.89149,8.85878,1.00833
0.92,1.21458,1.02545,7.86303,6.87965,8.84647,1.00844
0.93,1.22306,1.02579,7.85084,6.8677,8.83408,1.00854
0.94,1.23129,1.02616,7.83857,6.85568,8.82159,1.00867
0.95,1.23958,1.02654,7.82622,6.84357,8.809,1.00879
0.96,1.2479,1.0269,7.81378,6.83138,8.79634,1.00891
0.97,1.25605,1.0272,7.80126,6.81907,8.78365,1.00901
0.98,1.26413,1.0275,7.78866,6.80668,8.77086,1.0091
0.99,1.27214,1.02785,7.77598,6.79422,8.75797,1.00922
1,1.28028,1.0282,7.76322,6.78169,8.74499,1.00934
1.01,1.28816,1.02853,7.75038,6.76908,8.73196,1.00944
1.02,1.29595,1.02882,7.73746,6.75636,8.71888,1.00955
1.03,1.30368,1.02911,7.72446,6.74356,8.70572,1.00964
1.04,1.31153,1.02941,7.71139,6.7307,8.69246,1.00973
1.05,1.31901,1.02975,7.69823,6.71775,8.67909,1.00984
1.06,1.32661,1.03004,7.68501,6.70472,8.66572,1.00995
1.07,1.33407,1.03032,7.6717,6.6916,8.65225,1.01006
1.08,1.34148,1.0306,7.65833,6.6784,8.63871,1.01015
1.09,1.34886,1.03088,7.64488,6.66515,8.62511,1.01024
1.1,1.35609,1.03117,7.63135,6.65182,8.61139,1.01033
1.11,1.3634,1.03146,7.61776,6.63844,8.59763,1.01041
1.12,1.37057,1.03179,7.60409,6.62497,8.58376,1.01052
1.13,1.37772,1.0321,7.59035,6.61145,8.56983,1.01063
1.14,1.38475,1.03241,7.57653,6.59784,8.55585,1.01073
1.15,1.39168,1.0327,7.56265,6.58417,8.54181,1.01083
1.16,1.39868,1.03299,7.5487,6.57042,8.5277,1.01093
1.17,1.4055,1.03328,7.53468,6.55658,8.51351,1.01103
1.18,1.41229,1.03357,7.52059,6.54269,8.49924,1.01112
1.19,1.41916,1.03389,7.50644,6.52874,8.48487,1.01121
1.2,1.42584,1.0342,7.49221,6.51474,8.47046,1.01131
1.21,1.43253,1.03454,7.47792,6.50065,8.45595,1.01142
1.22,1.43905,1.03487,7.46356,6.4865,8.4414,1.01153
1.23,1.4456,1.03519,7.44914,6.47229,8.42679,1.01164
1.24,1.45203,1.03549,7.43465,6.458,8.41215,1.01175
1.25,1.45838,1.03581,7.4201,6.44365,8.39741,1.01186
1.26,1.46472,1.03611,7.40549,6.42922,8.38262,1.01197
1.27,1.47099,1.03641,7.39081,6.41474,8.36777,1.01207
1.28,1.47727,1.03671,7.37607,6.40019,8.35287,1.01218
1.29,1.48342,1.03702,7.36127,6.3856,8.33789,1.01228
1.3,1.48949,1.03734,7.3464,6.37094,8.32282,1.01238
1.31,1.4956,1.03766,7.33148,6.35623,8.30771,1.01249
1.32,1.50163,1.03798,7.31649,6.34146,8.29254,1.01259
1.33,1.50773,1.0383,7.30145,6.32664,8.27731,1.01269
1.34,1.51372,1.03861,7.28634,6.31173,8.26202,1.01279
1.35,1.51973,1.03891,7.27117,6.29678,8.24668,1.01289
1.36,1.52544,1.03921,7.25595,6.28175,8.23128,1.01298
1.37,1.5311,1.03951,7.24067,6.26669,8.21583,1.01308
1.38,1.53683,1.03982,7.22533,6.25155,8.20031,1.01318
1.39,1.54257,1.04013,7.20993,6.23637,8.18474,1.01328
1.4,1.54798,1.04043,7.19448,6.22113,8.16913,1.01338
1.41,1.5535,1.04072,7.17897,6.20583,8.15347,1.01348
1.42,1.55895,1.04101,7.16341,6.19046,8.13775,1.01357
1.43,1.5643,1.0413,7.1478,6.17505,8.12198,1.01367
1.44,1.56974,1.04157,7.13213,6.15957,8.10616,1.01376
1.45,1.57499,1.04185,7.1164,6.14403,8.0903,1.01386
1.46,1.5803,1.04212,7.10063,6.12844,8.07437,1.01395
1.47,1.58544,1.0424,7.0848,6.11279,8.05838,1.01404
1.48,1.59069,1.04267,7.06892,6.09709,8.04235,1.01413
1.49,1.59591,1.04294,7.05299,6.08133,8.02627,1.01422
1.5,1.601,1.04319,7.037,6.06551,8.01014,1.01431
1.51,1.60619,1.04346,7.02097,6.04965,7.99395,1.01439
1.52,1.61122,1.04371,7.00488,6.03374,7.97772,1.01448
1.53,1.61618,1.04397,6.98875,6.01778,7.96144,1.01456
1.54,1.62106,1.04421,6.97256,6.00176,7.94512,1.01464
1.55,1.62591,1.04447,6.95633,5.98571,7.92874,1.01472
1.56,1.63075,1.0447,6.94004,5.96959,7.91236,1.0148
1.57,1.63554,1.04494,6.92371,5.95343,7.89591,1.01489
1.58,1.64034,1.04516,6.90733,5.9372,7.87942,1.01497
1.59,1.64522,1.04541,6.89091,5.92094,7.86285,1.01505
1.6,1.64985,1.04561,6.87443,5.90462,7.8463,1.01512
1.61,1.65444,1.04585,6.85791,5.88826,7.82965,1.0152
1.62,1.65896,1.04606,6.84134,5.87184,7.81297,1.01528
1.63,1.66347,1.04631,6.82473,5.85539,7.79622,1.01535
1.64,1.66811,1.04652,6.80808,5.83889,7.77945,1.01542
1.65,1.67259,1.04675,6.79137,5.82234,7.76261,1.01549
1.66,1.67723,1.04696,6.77462,5.80574,7.74574,1.01556
1.67,1.68159,1.04722,6.75783,5.78911,7.7288,1.01564
1.68,1.68595,1.04747,6.74099,5.77244,7.71183,1.01573
1.69,1.69022,1.04771,6.72411,5.75572,7.6948,1.0158
1.7,1.69441,1.04795,6.70719,5.73895,7.67775,1.01588
1.71,1.69852,1.04819,6.69023,5.72217,7.66067,1.01596
1.72,1.70262,1.04842,6.67322,5.70532,7.64354,1.01604
1.73,1.70694,1.04864,6.65617,5.68842,7.62638,1.01611
1.74,1.71103,1.04887,6.63908,5.67148,7.60917,1.01619
1.75,1.71506,1.04907,6.62195,5.6545,7.59194,1.01625
1.76,1.71902,1.0493,6.60478,5.63748,7.57463,1.01632
1.77,1.72291,1.04949,6.58757,5.6204,7.5573,1.01638
1.78,1.72686,1.04974,6.57033,5.6033,7.53992,1.01647
1.79,1.73084,1.04998,6.55304,5.58615,7.52249,1.01656
1.8,1.73477,1.05022,6.53571,5.56898,7.50502,1.01664
1.81,1.73862,1.05045,6.51834,5.55175,7.48753,1.01672
1.82,1.74248,1.05066,6.50094,5.5345,7.47003,1.01679
1.83,1.74622,1.05087,6.4835,5.51721,7.45247,1.01686
1.84,1.7499,1.05107,6.46602,5.49986,7.43489,1.01693
1.85,1.75355,1.05128,6.4485,5.48251,7.41727,1.01699
1.86,1.75722,1.05149,6.43095,5.46509,7.3996,1.01705
1.87,1.76091,1.05172,6.41336,5.44764,7.38186,1.01713
1.88,1.76446,1.05195,6.39573,5.43014,7.3641,1.01721
1.89,1.76803,1.05216,6.37807,5.41263,7.34634,1.01728
1.9,1.77152,1.05236,6.36037,5.39509,7.32855,1.01735
1.91,1.77497,1.05255,6.34264,5.37751,7.31075,1.01742
1.92,1.77851,1.05274,6.32487,5.3599,7.29291,1.01748
1.93,1.78211,1.05293,6.30707,5.34226,7.27502,1.01753
1.94,1.78547,1.05316,6.28923,5.32457,7.25706,1.01761
1.95,1.7888,1.05337,6.27136,5.3068,7.23904,1.01768
1.96,1.7924,1.05357,6.25346,5.28903,7.22104,1.01775
1.97,1.79576,1.05378,6.23552,5.27123,7.20298,1.01781
1.98,1.79905,1.05396,6.21754,5.2534,7.18493,1.01787
1.99,1.80225,1.05412,6.19954,5.23553,7.16686,1.01793
2,1.80552,1.05431,6.1815,5.21763,7.14872,1.01798
2.01,1.80889,1.05453,6.16343,5.19969,7.13051,1.01806
2.02,1.81204,1.05473,6.14532,5.18167,7.11226,1.01813
2.03,1.81513,1.0549,6.12719,5.16366,7.09404,1.01819
2.04,1.81815,1.05509,6.10902,5.14563,7.07579,1.01824
2.05,1.82119,1.05524,6.09083,5.12756,7.05754,1.01829
2.06,1.82434,1.05539,6.0726,5.10947,7.03925,1.01834
2.07,1.82742,1.05559,6.05434,5.09133,7.02089,1.01841
2.08,1.83048,1.05578,6.03605,5.07314,7.00247,1.01848
2.09,1.83345,1.05596,6.01773,5.0549,6.98403,1.01853
2.1,1.83645,1.05611,5.99938,5.03668,6.96562,1.01859
2.11,1.8394,1.05628,5.981,5.01843,6.94716,1.01863
2.12,1.8423,1.05643,5.9626,5.00013,6.92867,1.01868
2.13,1.84515,1.0566,5.94416,4.9818,6.91016,1.01875
2.14,1.84809,1.05678,5.92569,4.96342,6.89157,1.01881
2.15,1.85095,1.05694,5.9072,4.94503,6.87299,1.01887
2.16,1.85374,1.05707,5.88868,4.92661,6.85441,1.01891
2.17,1.85646,1.0572,5.87013,4.9082,6.83583,1.01895
2.18,1.85924,1.05739,5.85155,4.88975,6.81717,1.01901
2.19,1.86193,1.05756,5.83294,4.87123,6.79845,1.01908
2.2,1.86461,1.05771,5.81431,4.8527,6.77973,1.01913
2.21,1.86735,1.05788,5.79565,4.83417,6.761,1.01918
2.22,1.86995,1.05804,5.77696,4.81562,6.74224,1.01922
2.23,1.87255,1.05821,5.75825,4.79703,6.72346,1.01928
2.24,1.87513,1.05839,5.73951,4.77839,6.7046,1.01934
2.25,1.87798,1.05855,5.72075,4.75972,6.68572,1.01939
2.26,1.88048,1.05868,5.70196,4.74101,6.66686,1.01943
2.27,1.88309,1.05883,5.68314,4.72234,6.648,1.01947
2.28,1.88571,1.05901,5.6643,4.70362,6.62906,1.01954
2.29,1.88809,1.05919,5.64543,4.68483,6.61007,1.0196
2.3,1.89052,1.05932,5.62654,4.666,6.59111,1.01965
2.31,1.89288,1.05946,5.60762,4.64719,6.57212,1.01969
2.32,1.89522,1.0596,5.58868,4.62839,6.55312,1.01973
2.33,1.89769,1.05978,5.56971,4.60954,6.53409,1.0198
2.34,1.90024,1.05995,5.55073,4.59064,6.51499,1.01986
2.35,1.90256,1.06008,5.53171,4.57169,6.49589,1.0199
2.36,1.90487,1.0602,5.51268,4.55274,6.47679,1.01994
2.37,1.90719,1.06036,5.49362,4.53381,6.45766,1.01999
2.38,1.90942,1.06055,5.47453,4.51484,6.43846,1.02005
2.39,1.91158,1.06068,5.45543,4.49578,6.41925,1.0201
2.4,1.91387,1.0608,5.4363,4.47673,6.40007,1.02013
2.41,1.91613,1.06092,5.41715,4.4577,6.38087,1.02017
2.42,1.91835,1.0611,5.39798,4.43864,6.36162,1.02024
2.43,1.9205,1.06124,5.37879,4.41953,6.34235,1.02029
2.44,1.92264,1.06135,5.35957,4.40038,6.32308,1.02032
2.45,1.92487,1.06146,5.34033,4.38125,6.30379,1.02035
2.46,1.92708,1.0616,5.32107,4.36211,6.28451,1.02041
2.47,1.92919,1.06178,5.30179,4.34295,6.26513,1.02047
2.48,1.93129,1.06191,5.28249,4.32372,6.24574,1.02051
2.49,1.9333,1.06201,5.26317,4.30447,6.22636,1.02053
2.5,1.93531,1.06214,5.24383,4.28525,6.20698,1.02058
2.51,1.9373,1.06232,5.22446,4.266,6.18753,1.02064
2.52,1.93918,1.06245,5.20508,4.24668,6.16805,1.02068
2.53,1.94117,1.06255,5.18568,4.22734,6.14859,1.02071
2.54,1.94313,1.06267,5.16626,4.20804,6.12914,1.02075
2.55,1.94499,1.06285,5.14682,4.1887,6.10961,1.02081
2.56,1.94682,1.06297,5.12736,4.16931,6.09007,1.02085
2.57,1.94869,1.06306,5.10788,4.14989,6.07053,1.02088
2.58,1.95063,1.06317,5.08839,4.13049,6.05099,1.02091
2.59,1.95256,1.06332,5.06887,4.11109,6.03143,1.02097
2.6,1.95444,1.06346,5.04934,4.09163,6.0118,1.02101
2.61,1.95632,1.06356,5.02978,4.07213,5.99217,1.02104
2.62,1.95827,1.06365,5.01021,4.05263,5.97256,1.02106
2.63,1.96009,1.0638,4.99062,4.03314,5.9529,1.02112
2.64,1.96187,1.06393,4.97101,4.0136,5.9332,1.02116
2.65,1.96371,1.064,4.95138,3.994,5.9135,1.02118
2.66,1.96551,1.06409,4.93174,3.97443,5.89384,1.02121
2.67,1.9673,1.06423,4.91207,3.95487,5.87413,1.02127
2.68,1.9691,1.06434,4.89239,3.93523,5.85437,1.02131
2.69,1.97075,1.0644,4.87269,3.91557,5.83463,1.02132
2.7,1.97237,1.06449,4.85298,3.89594,5.81491,1.02136
2.71,1.97402,1.06463,4.83325,3.87631,5.79512,1.02141
2.72,1.97574,1.06474,4.8135,3.85663,5.7753,1.02144
2.73,1.97737,1.06482,4.79373,3.83692,5.75548,1.02146
2.74,1.97895,1.06494,4.77395,3.81724,5.73568,1.02151
2.75,1.98057,1.06507,4.75416,3.79754,5.71582,1.02155
2.76,1.98211,1.06517,4.73434,3.77777,5.69592,1.02158
2.77,1.98368,1.06524,4.71451,3.75801,5.67603,1.02158
2.78,1.98524,1.06536,4.69467,3.73825,5.65618,1.02165
2.79,1.98642,1.06551,4.67481,3.71849,5.63623,1.02169
2.8,1.98801,1.06561,4.65494,3.69867,5.61627,1.02171
2.81,1.98954,1.06568,4.63505,3.67884,5.59637,1.02174
2.82,1.99101,1.06583,4.61515,3.65905,5.57643,1.0218
2.83,1.99263,1.06595,4.59523,3.63921,5.55644,1.02183
2.84,1.99419,1.06602,4.5753,3.61931,5.53643,1.02184
2.85,1.99568,1.06613,4.55535,3.59945,5.51646,1.0219
2.86,1.99716,1.06628,4.53539,3.57959,5.49644,1.02194
2.87,1.99861,1.06638,4.51541,3.55965,5.47636,1.02197
2.88,2.00005,1.06644,4.49541,3.53969,5.4563,1.02197
2.89,2.00146,1.06656,4.47541,3.51977,5.43628,1.02204
2.9,2.00278,1.06669,4.45539,3.49982,5.41617,1.02207
2.91,2.0042,1.06676,4.43535,3.47982,5.39605,1.02208
2.92,2.00562,1.06685,4.4153,3.45983,5.37599,1.02212
2.93,2.007,1.06698,4.39524,3.43987,5.35588,1.02217
2.94,2.00844,1.06706,4.37516,3.41985,5.33574,1.02219
2.95,2.00971,1.06711,4.35507,3.39979,5.31562,1.0222
2.96,2.01102,1.06722,4.33497,3.37978,5.29552,1.02226
2.97,2.01237,1.06734,4.31485,3.35975,5.27535,1.0223
2.98,2.01369,1.06742,4.29473,3.33966,5.25514,1.02231
2.99,2.01494,1.0675,4.27458,3.31959,5.23499,1.02234
3,2.0162,1.06761,4.25443,3.29952,5.21481,1.02239
3.01,2.01747,1.06771,4.23426,3.27941,5.19455,1.0224
3.02,2.01859,1.06776,4.21408,3.25927,5.17432,1.02241
3.03,2.0198,1.06786,4.19389,3.23915,5.15413,1.02247
3.04,2.02104,1.06799,4.17368,3.21903,5.13385,1.0225
3.05,2.02174,1.06805,4.15347,3.19886,5.11356,1.0225
3.06,2.0228,1.06812,4.13324,3.17868,5.09335,1.02255
3.07,2.02391,1.06824,4.11301,3.15854,5.07307,1.02259
3.08,2.02498,1.06832,4.09277,3.13835,5.05276,1.0226
3.09,2.02616,1.06836,4.07251,3.11812,5.03249,1.02262
3.1,2.02713,1.06848,4.05225,3.09795,5.0122,1.02267
3.11,2.0284,1.06858,4.03197,3.07775,4.99185,1.02269
3.12,2.02947,1.06862,4.01168,3.05747,4.97149,1.02268
3.13,2.03047,1.06872,3.99138,3.03722,4.95118,1.02274
3.14,2.03145,1.06882,3.97107,3.01699,4.93082,1.02276
3.15,2.0325,1.06886,3.95075,2.99669,4.91042,1.02276
3.16,2.03355,1.06893,3.93042,2.9764,4.89008,1.0228
3.17,2.03471,1.06903,3.91008,2.95614,4.86973,1.02284
3.18,2.03566,1.06909,3.88973,2.93583,4.84931,1.02285
3.19,2.03654,1.06913,3.86937,2.91548,4.82893,1.02286
3.2,2.03746,1.06921,3.849,2.89519,4.80858,1.02291
3.21,2.03844,1.06929,3.82862,2.87487,4.78816,1.02293
3.22,2.03937,1.06933,3.80823,2.8545,4.76771,1.02292
3.23,2.04032,1.06943,3.78783,2.83418,4.74733,1.02298
3.24,2.04126,1.06951,3.76743,2.81384,4.72687,1.02301
3.25,2.04221,1.06956,3.74701,2.79345,4.70637,1.02299
3.26,2.04318,1.06963,3.72658,2.77306,4.68595,1.02305
3.27,2.04402,1.06973,3.70615,2.75271,4.66548,1.02307
3.28,2.04488,1.0698,3.6857,2.73231,4.64494,1.02307
3.29,2.04573,1.06986,3.66525,2.71188,4.62448,1.02311
3.3,2.04647,1.06995,3.64479,2.69151,4.60401,1.02314
3.31,2.0473,1.07002,3.62432,2.67109,4.58347,1.02315
3.32,2.04817,1.07007,3.60385,2.65062,4.56297,1.02317
3.33,2.04901,1.07015,3.58336,2.63022,4.5425,1.02321
3.34,2.04981,1.07024,3.56287,2.60979,4.52194,1.02323
3.35,2.05059,1.07029,3.54237,2.58931,4.50137,1.02323
3.36,2.05132,1.07038,3.52186,2.56887,4.48088,1.02328
3.37,2.05214,1.07046,3.50134,2.54841,4.46031,1.0233
3.38,2.05279,1.0705,3.48082,2.5279,4.4397,1.02329
3.39,2.05346,1.07058,3.46028,2.50741,4.41917,1.02335
3.4,2.05418,1.07067,3.43975,2.48694,4.39859,1.02337
3.41,2.05498,1.07074,3.4192,2.46644,4.37796,1.02337
3.42,2.05552,1.0708,3.39865,2.44592,4.35741,1.02341
3.43,2.05616,1.07087,3.37809,2.42543,4.33685,1.02344
3.44,2.05693,1.07094,3.35753,2.40491,4.3162,1.02344
3.45,2.05748,1.071,3.33696,2.38437,4.29564,1.02348
3.46,2.05795,1.07107,3.31638,2.36387,4.27506,1.02352
3.47,2.05854,1.07116,3.2958,2.34336,4.2544,1.02352
3.48,2.05899,1.07122,3.27521,2.3228,4.23378,1.02354
3.49,2.05947,1.07129,3.25462,2.30227,4.2132,1.02358
3.5,2.06,1.07138,3.23402,2.28174,4.19252,1.02359
3.51,2.06002,1.07144,3.21342,2.26116,4.17187,1.0236
3.52,2.06057,1.07151,3.19282,2.24061,4.15128,1.02365
3.53,2.06117,1.07161,3.17221,2.22008,4.1306,1.02366
3.54,2.06169,1.07166,3.1516,2.1995,4.10992,1.02366
3.55,2.06212,1.07171,3.13098,2.17892,4.08934,1.02371
3.56,2.06259,1.0718,3.11036,2.15837,4.06867,1.02373
3.57,2.06308,1.07184,3.08973,2.13777,4.04799,1.02372
3.58,2.06351,1.07189,3.06909,2.11716,4.02738,1.02377
3.59,2.06381,1.07198,3.04846,2.09661,4.0067,1.02379
3.6,2.06412,1.07203,3.02782,2.07602,3.98599,1.02377
3.61,2.0643,1.07209,3.00718,2.0554,3.96537,1.02383
3.62,2.06459,1.07217,2.98653,2.03483,3.9447,1.02385
3.63,2.06499,1.07222,2.96589,2.01423,3.92397,1.02383
3.64,2.06502,1.07227,2.94524,1.99359,3.90334,1.02388
3.65,2.0653,1.07236,2.92458,1.97302,3.88266,1.02391
3.66,2.06545,1.07242,2.90393,1.95243,3.86193,1.02389
3.67,2.06573,1.07246,2.88327,1.93179,3.8413,1.02393
3.68,2.0656,1.07253,2.86262,1.91121,3.82064,1.02397
3.69,2.06568,1.07259,2.84196,1.89061,3.79992,1.02396
3.7,2.06576,1.07263,2.8213,1.86997,3.77927,1.02399
3.71,2.06587,1.07272,2.80065,1.84938,3.7586,1.02402
3.72,2.06593,1.07278,2.77999,1.82879,3.73787,1.02402
3.73,2.06596,1.07281,2.75933,1.80814,3.71721,1.02404
3.74,2.06601,1.07288,2.73867,1.78754,3.69655,1.02407
3.75,2.06606,1.07295,2.71801,1.76694,3.67583,1.02407
3.76,2.06608,1.07297,2.69735,1.74629,3.65516,1.02408
3.77,2.06603,1.07304,2.67669,1.72569,3.6345,1.02412
3.78,2.06607,1.07311,2.65603,1.70509,3.61378,1.02412
3.79,2.06584,1.07313,2.63537,1.68445,3.59311,1.02412
3.8,2.06573,1.0732,2.61471,1.66384,3.57247,1.02417
