time,velocity,ratio,centerX,Xmax,Xmin,Ymax
0,0,1,2,1,3,1
0.01,0.0189082,0.999989,1.99991,0.999897,2.99992,1
0.02,0.0376531,1.00002,1.99962,0.999644,2.99962,1.00001
0.03,0.0561405,1.00008,1.99916,0.999228,2.99911,1.00002
0.04,0.0743943,1.00014,1.9985,0.998616,2.99842,1.00004
0.05,0.0924165,1.00017,1.99767,0.997798,2.99757,1.00006
0.06,0.110217,1.00023,1.99666,0.996822,2.99651,1.00007
0.07,0.1278,1.00028,1.99547,0.995669,2.99528,1.00008
0.08,0.145216,1.00031,1.99411,0.994334,2.99388,1.00009
0.09,0.162483,1.00033,1.99257,0.992821,2.99231,1.00008
0.1,0.17982,1.00036,1.99086,0.991135,2.99059,1.00009
0.11,0.196881,1.00035,1.98898,0.989259,2.98875,1.00009
0.12,0.214056,1.0003,1.98693,0.987159,2.9868,1.00012
0.13,0.231036,1.00028,1.9847,0.98491,2.98462,1.00013
0.14,0.247792,1.0003,1.98231,0.982533,2.98219,1.00013
0.15,0.264041,1.00034,1.97975,0.980011,2.97954,1.0001
0.16,0.280123,1.00038,1.97703,0.977379,2.97674,1.00007
0.17,0.296316,1.00042,1.97415,0.974521,2.97383,1.00008
0.18,0.312477,1.00042,1.97111,0.971454,2.97082,1.0001
0.19,0.328092,1.00034,1.96791,0.968104,2.96774,1.00016
0.2,0.343739,1.00037,1.96455,0.964721,2.96437,1.00019
0.21,0.359003,1.00048,1.96104,0.961326,2.9607,1.00017
0.22,0.374373,1.00058,1.95737,0.957803,2.95696,1.00016
0.23,0.38956,1.00067,1.95355,0.954166,2.95309,1.00014
0.24,0.403719,1.00071,1.94958,0.950192,2.94917,1.00019
0.25,0.418114,1.00073,1.94548,0.94601,2.945,1.00022
0.26,0.432805,1.00072,1.94122,0.941667,2.94078,1.00027
0.27,0.447276,1.00071,1.93682,0.937279,2.93642,1.00028
0.28,0.461526,1.00086,1.93228,0.932931,2.93177,1.00027
0.29,0.47536,1.00094,1.9276,0.928302,2.92692,1.00025
0.3,0.489259,1.00098,1.92278,0.923493,2.92202,1.00025
0.31,0.503148,1.00088,1.91782,0.918442,2.91722,1.00027
0.32,0.516762,1.00094,1.91272,0.913404,2.91215,1.00032
0.33,0.530499,1.00099,1.90748,0.908191,2.90691,1.00035
0.34,0.54402,1.00089,1.90211,0.902744,2.90164,1.00033
0.35,0.55723,1.00101,1.8966,0.897327,2.89591,1.00031
0.36,0.569467,1.00118,1.89097,0.891842,2.89012,1.00031
0.37,0.582373,1.00108,1.88521,0.886041,2.88453,1.00033
0.38,0.595154,1.0011,1.87932,0.88015,2.87862,1.00034
0.39,0.608174,1.00118,1.87331,0.874117,2.87254,1.00039
0.4,0.620565,1.00116,1.86716,0.867913,2.86643,1.00042
0.41,0.633162,1.0013,1.8609,0.861806,2.86006,1.00042
0.42,0.6454,1.00133,1.8545,0.855493,2.85365,1.00041
0.43,0.65782,1.00146,1.84799,0.84908,2.84704,1.00044
0.44,0.669854,1.00157,1.84135,0.842553,2.84033,1.00046
0.45,0.681704,1.00149,1.83459,0.835636,2.83367,1.0005
0.46,0.693535,1.00161,1.82772,0.828834,2.82668,1.00053
0.47,0.704905,1.00162,1.82073,0.821898,2.81974,1.00054
0.48,0.716485,1.00172,1.81362,0.814796,2.8125,1.00057
0.49,0.727914,1.00179,1.8064,0.807736,2.8052,1.00052
0.5,0.739231,1.00179,1.79906,0.800307,2.79789,1.00058
0.51,0.750403,1.00188,1.79162,0.793014,2.79039,1.00057
0.52,0.761269,1.00186,1.78406,0.785398,2.78293,1.00063
0.53,0.772124,1.00185,1.77639,0.777727,2.77528,1.00062
0.54,0.782989,1.00195,1.76862,0.770012,2.76738,1.00063
0.55,0.793705,1.00198,1.76073,0.762151,2.75947,1.00063
0.56,0.804123,1.00209,1.75275,0.754294,2.7514,1.00063
0.57,0.814365,1.00207,1.74465,0.74618,2.74331,1.00064
0.58,0.824761,1.00216,1.73646,0.738026,2.73512,1.0007
0.59,0.834705,1.00219,1.72816,0.729735,2.72675,1.0007
0.6,0.844701,1.00225,1.71976,0.721357,2.71839,1.00076
0.61,0.854411,1.0023,1.71127,0.712928,2.7098,1.00073
0.62,0.864243,1.00246,1.70267,0.704502,2.70116,1.00079
0.63,0.873708,1.00248,1.69398,0.695805,2.6924,1.00078
0.64,0.883254,1.00261,1.6852,0.687115,2.68355,1.00082
0.65,0.892576,1.00258,1.67632,0.678185,2.67473,1.00085
0.66,0.901678,1.0027,1.66735,0.669308,2.66567,1.00087
0.67,0.910717,1.00272,1.65829,0.660248,2.65662,1.0009
0.68,0.91961,1.00276,1.64914,0.651179,2.64741,1.00087
0.69,0.928105,1.00288,1.6399,0.642005,2.63807,1.00091
0.7,0.936169,1.00287,1.63058,0.632708,2.62879,1.00091
0.71,0.94443,1.00297,1.62118,0.623359,2.61929,1.00093
0.72,0.952587,1.00293,1.61169,0.613868,2.60994,1.00096
0.73,0.960666,1.00301,1.60213,0.60436,2.60028,1.00096
0.74,0.968642,1.00308,1.59248,0.594762,2.59061,1.001
0.75,0.976479,1.00314,1.58275,0.5851,2.58084,1.001
0.76,0.984175,1.00324,1.57295,0.575378,2.57091,1.001
0.77,0.991865,1.00331,1.56307,0.565564,2.56105,1.00105
0.78,0.999204,1.00337,1.55312,0.555644,2.55105,1.00106
0.79,1.00623,1.00347,1.54309,0.545668,2.54097,1.00111
0.8,1.01319,1.00353,1.53299,0.535612,2.53088,1.00115
0.81,1.01998,1.00362,1.52283,0.525558,2.52061,1.00114
0.82,1.02655,1.00376,1.51259,0.51545,2.51032,1.00118
0.83,1.03301,1.00381,1.5023,0.505202,2.50001,1.00121
0.84,1.03927,1.00392,1.49194,0.494947,2.48954,1.0012
0.85,1.04516,1.00398,1.48151,0.484571,2.47916,1.00126
0.86,1.05106,1.00403,1.47103,0.474105,2.46866,1.00129
0.87,1.05671,1.0041,1.46049,0.463659,2.45805,1.00128
0.88,1.06224,1.00418,1.4499,0.453115,2.44742,1.00132
0.89,1.06753,1.00424,1.43925,0.442533,2.43674,1.00134
0.9,1.07236,1.00432,1.42855,0.431948,2.42598,1.00132
0.91,1.07695,1.00439,1.41781,0.421252,2.41522,1.00136
0.92,1.08148,1.00444,1.40701,0.410494,2.40446,1.00141
0.93,1.0859,1.00453,1.39618,0.399765,2.39356,1.00141
0.94,1.08992,1.00462,1.3853,0.388954,2.3826,1.00143
0.95,1.09383,1.00472,1.37438,0.378125,2.37168,1.00148
0.96,1.09746,1.00484,1.36342,0.367301,2.36064,1.00149
0.97,1.10075,1.00495,1.35243,0.356434,2.34954,1.00149
0.98,1.10382,1.00504,1.34141,0.345454,2.33855,1.00157
0.99,1.10651,1.00516,1.33036,0.334527,2.32745,1.0016
1,1.10895,1.00529,1.31928,0.323618,2.31629,1.00161
1.01,1.11112,1.0054,1.30818,0.312586,2.30514,1.00165
1.02,1.11291,1.00553,1.29706,0.301622,2.29399,1.0017
1.03,1.11415,1.0057,1.28593,0.290693,2.28276,1.00171
1.04,1.11507,1.0058,1.27478,0.279654,2.27155,1.00173
1.05,1.11559,1.00592,1.26363,0.268595,2.26042,1.00181
1.06,1.11599,1.00608,1.25247,0.257634,2.24919,1.00184
1.07,1.11578,1.00625,1.24131,0.246656,2.2379,1.00185
1.08,1.11527,1.00637,1.23016,0.235594,2.22671,1.0019
1.09,1.11438,1.00655,1.21901,0.224684,2.21553,1.00194
1.1,1.11294,1.00675,1.20787,0.213796,2.20429,1.00196
1.11,1.11099,1.00689,1.19675,0.202837,2.19311,1.00199
1.12,1.10841,1.00706,1.18566,0.191944,2.18205,1.00207
1.13,1.10548,1.0073,1.17459,0.181169,2.17087,1.00211
1.14,1.10183,1.00754,1.16355,0.170421,2.15971,1.00214
1.15,1.09757,1.00775,1.15255,0.159668,2.14866,1.00221
1.16,1.09272,1.00805,1.1416,0.149095,2.13763,1.00227
1.17,1.08685,1.00837,1.1307,0.138591,2.12657,1.00232
1.18,1.08031,1.00867,1.11987,0.128112,2.11564,1.00238
1.19,1.07304,1.00903,1.1091,0.117803,2.10483,1.00248
1.2,1.06476,1.00945,1.09841,0.107653,2.09398,1.00255
1.21,1.05542,1.00991,1.08781,0.0976538,2.0832,1.00261
1.22,1.04513,1.0104,1.07731,0.0877984,2.07263,1.00274
1.23,1.03319,1.01101,1.06692,0.0782348,2.06206,1.00283
1.24,1.01987,1.01169,1.05665,0.0688831,2.05155,1.00292
1.25,1.00514,1.01246,1.04652,0.0598166,2.04129,1.00308
1.26,0.98846,1.01336,1.03656,0.0511054,2.03112,1.00324
1.27,0.969919,1.01448,1.02676,0.0429284,2.02101,1.00336
1.28,0.949082,1.01586,1.01717,0.0353101,2.01113,1.00357
1.29,0.925485,1.01756,1.00779,0.0284954,2.00143,1.00379
1.3,0.899182,1.01963,0.998666,0.0225486,1.99189,1.004
1.31,0.868646,1.02213,0.989825,0.0175216,1.98262,1.0043
1.32,0.834517,1.02525,0.981305,0.0138862,1.9736,1.0046
1.33,0.795666,1.0287,0.973151,0.010891,1.96487,1.00503
1.34,0.751117,1.03258,0.965411,0.0087489,1.95636,1.00553
1.35,0.701564,1.03647,0.958143,0.00687857,1.94831,1.00611
1.36,0.645597,1.04047,0.9514,0.00527395,1.94049,1.00676
1.37,0.584173,1.04421,0.945247,0.003253,1.93309,1.00758
1.38,0.517773,1.04769,0.939732,0.000933153,1.92608,1.00848
1.39,0.446894,1.05165,0.934903,0.000310476,1.91993,1.00939
1.4,0.372268,1.05541,0.930802,-0,1.91433,1.0102
1.41,0.295371,1.05907,0.92746,0.000325732,1.9095,1.01097
1.42,0.216785,1.06165,0.924896,8.4418e-08,1.9055,1.01149
1.43,0.137805,1.06338,0.92312,-0,1.90295,1.01178
1.44,0.0593022,1.06419,0.922132,9.15283e-09,1.90167,1.01187
1.45,-0.0180576,1.06392,0.921925,3.44429e-09,1.90185,1.01171
1.46,-0.0923261,1.06259,0.92248,6.18513e-09,1.90345,1.01129
1.47,-0.162457,1.06052,0.923755,4.15329e-09,1.90598,1.01067
1.48,-0.228513,1.05785,0.925711,4.19897e-09,1.90919,1.00982
1.49,-0.290007,1.05454,0.928306,4.42925e-09,1.91351,1.00893
1.5,-0.345745,1.051,0.931488,4.26879e-09,1.9183,1.00807
1.51,-0.395345,1.04736,0.935197,6.74531e-09,1.92337,1.00722
1.52,-0.438422,1.04351,0.93937,5.02295e-09,1.92896,1.00644
1.53,-0.473607,1.03983,0.943936,8.97601e-09,1.93446,1.00575
1.54,-0.500562,1.03614,0.948812,2.19099e-08,1.94007,1.0051
1.55,-0.519935,1.03234,0.953919,5.31717e-08,1.94603,1.00448
1.56,-0.532386,1.02852,0.959185,-0,1.95213,1.00391
1.57,-0.538925,1.02477,0.964545,-0,1.95822,1.00336
1.58,-0.539629,1.02093,0.969942,-0,1.96459,1.00285
1.59,-0.535031,1.01698,0.975318,-0,1.97105,1.00226
1.6,-0.525287,1.01309,0.980623,-0,1.97751,1.0017
1.61,-0.51083,1.00935,0.985806,-0,1.98361,1.00108
1.62,-0.492542,1.00566,0.990825,-0,1.98965,1.00046
1.63,-0.47024,1.00214,0.995643,-0,1.99552,0.999893
1.64,-0.444288,0.998994,1.00022,0.000126542,2.00086,0.999361
1.65,-0.415613,0.995902,1.00452,9.43059e-05,2.00614,0.99891
1.66,-0.384542,0.993134,1.00852,-0,2.01086,0.998528
1.67,-0.35087,0.990998,1.0122,0.000347722,2.01497,0.998244
1.68,-0.316246,0.988935,1.01554,0.000385009,2.01882,0.998051
1.69,-0.280858,0.987112,1.01852,0.000149175,2.022,0.997896
1.7,-0.245378,0.988675,1.02115,0.00608723,2.02467,0.99786
1.71,-0.209853,0.989074,1.02343,0.00891688,2.02682,0.99793
1.72,-0.175025,0.990096,1.02535,0.0124119,2.02853,0.998076
1.73,-0.142295,0.99155,1.02694,0.0162813,2.02982,0.99826
1.74,-0.112644,0.993248,1.02821,0.0201191,2.0306,0.998453
1.75,-0.0865266,0.995176,1.0292,0.0238466,2.03099,0.998731
1.76,-0.0641226,0.997141,1.02995,0.0271493,2.03112,0.99912
1.77,-0.045493,0.999077,1.0305,0.0299717,2.03114,0.999661
1.78,-0.0306262,1.00097,1.03088,0.0323265,2.03097,1.00029
1.79,-0.0182751,1.00286,1.03112,0.0341418,2.03035,1.00095
1.8,-0.00817977,1.0046,1.03125,0.0354138,2.02932,1.00155
1.81,0.000410258,1.00616,1.03129,0.0363405,2.02799,1.00195
