time,velocity,ratio,centerX,Xmax,Xmin,Ymax
0,0,1,11,10,12,1
0.01,0.0198067,1,10.9999,9.9999,11.9999,1
0.02,0.0394232,1.00001,10.9996,9.99961,11.9996,1
0.03,0.058816,1.00001,10.9991,9.99913,11.9991,1
0.04,0.0780009,1.00001,10.9984,9.99845,11.9984,1
0.05,0.0969856,1.00002,10.9976,9.99758,11.9975,1
0.06,0.11587,1.00003,10.9965,9.99654,11.9965,0.999999
0.07,0.134448,1.00004,10.9953,9.9953,11.9952,0.999998
0.08,0.152843,1.00006,10.9938,9.99389,11.9938,0.999996
0.09,0.171063,1.00007,10.9922,9.9923,11.9921,0.999992
0.1,0.189188,1.00011,10.9904,9.99052,11.9903,1.00002
0.11,0.207063,1.00017,10.9885,9.98858,11.9883,1.00005
0.12,0.224779,1.00022,10.9863,9.98647,11.9862,1.00008
0.13,0.242318,1.00029,10.984,9.98419,11.9838,1.0001
0.14,0.259714,1.00036,10.9815,9.98175,11.9813,1.00012
0.15,0.276924,1.00046,10.9788,9.97915,11.9785,1.00014
0.16,0.293957,1.00059,10.9759,9.97638,11.9756,1.00018
0.17,0.310813,1.00076,10.9729,9.97347,11.9724,1.00024
0.18,0.327494,1.00095,10.9697,9.9704,11.9691,1.0003
0.19,0.344065,1.00116,10.9664,9.96719,11.9656,1.00037
0.2,0.360417,1.00138,10.9629,9.96382,11.9619,1.00043
0.21,0.376604,1.00165,10.9592,9.9603,11.958,1.00051
0.22,0.392639,1.00197,10.9553,9.95664,11.954,1.00063
0.23,0.408463,1.00231,10.9513,9.95284,11.9497,1.00074
0.24,0.424096,1.00268,10.9472,9.94891,11.9453,1.00085
0.25,0.439639,1.00309,10.9429,9.94485,11.9406,1.00098
0.26,0.454978,1.00355,10.9384,9.94065,11.9359,1.00114
0.27,0.470065,1.00406,10.9338,9.93632,11.9308,1.0013
0.28,0.48503,1.00459,10.929,9.93186,11.9256,1.00146
0.29,0.499837,1.0052,10.9241,9.9273,11.9203,1.00168
0.3,0.514446,1.00584,10.919,9.92261,11.9148,1.00189
0.31,0.528865,1.00652,10.9138,9.9178,11.909,1.00209
0.32,0.54317,1.00728,10.9084,9.91286,11.9031,1.00236
0.33,0.557197,1.00811,10.9029,9.90782,11.8969,1.00262
0.34,0.571032,1.00895,10.8973,9.90267,11.8906,1.00287
0.35,0.584767,1.00988,10.8915,9.8974,11.8842,1.0032
0.36,0.598329,1.01088,10.8856,9.89205,11.8774,1.00351
0.37,0.611643,1.0119,10.8796,9.88659,11.8706,1.00382
0.38,0.624799,1.01304,10.8734,9.88101,11.8635,1.0042
0.39,0.63772,1.01415,10.8671,9.87531,11.8564,1.00455
0.4,0.650437,1.01535,10.8606,9.86955,11.849,1.00494
0.41,0.663166,1.01663,10.8541,9.86369,11.8415,1.00535
0.42,0.675489,1.01797,10.8474,9.85772,11.8337,1.00576
0.43,0.687651,1.01939,10.8406,9.85166,11.8258,1.00622
0.44,0.699626,1.02082,10.8336,9.84549,11.8177,1.00666
0.45,0.711426,1.02235,10.8266,9.83924,11.8095,1.00716
0.46,0.723027,1.02392,10.8194,9.8329,11.8011,1.00764
0.47,0.734417,1.02553,10.8121,9.82647,11.7926,1.00816
0.48,0.745627,1.02718,10.8047,9.81995,11.7839,1.00868
0.49,0.756667,1.02889,10.7972,9.81331,11.7751,1.00923
0.5,0.767493,1.03071,10.7896,9.80661,11.766,1.0098
0.51,0.778131,1.03253,10.7819,9.79984,11.7569,1.01036
0.52,0.788402,1.03444,10.7741,9.79296,11.7476,1.01097
0.53,0.79871,1.03639,10.7661,9.78602,11.7381,1.01156
0.54,0.808798,1.03838,10.7581,9.77899,11.7286,1.0122
0.55,0.818735,1.04037,10.75,9.77189,11.7189,1.01282
0.56,0.828445,1.04247,10.7417,9.76473,11.7091,1.0135
0.57,0.83801,1.04459,10.7334,9.75747,11.6992,1.01414
0.58,0.847434,1.04678,10.725,9.75012,11.6891,1.01484
0.59,0.856613,1.04895,10.7164,9.74271,11.6789,1.01551
0.6,0.865622,1.05125,10.7078,9.73527,11.6686,1.01622
0.61,0.874615,1.05346,10.6991,9.72771,11.6583,1.01692
0.62,0.883391,1.05576,10.6903,9.7201,11.6479,1.01765
0.63,0.892069,1.05811,10.6815,9.71239,11.6373,1.01838
0.64,0.900402,1.06046,10.6725,9.70464,11.6267,1.01911
0.65,0.908727,1.06284,10.6635,9.69679,11.6159,1.01987
0.66,0.916884,1.06522,10.6543,9.68887,11.6051,1.02061
0.67,0.924926,1.06762,10.6451,9.68087,11.5943,1.02139
0.68,0.932847,1.07,10.6359,9.67282,11.5834,1.02214
0.69,0.940639,1.07248,10.6265,9.66469,11.5723,1.02293
0.7,0.948266,1.07493,10.617,9.6565,11.5612,1.0237
0.71,0.955751,1.07739,10.6075,9.64823,11.55,1.02447
0.72,0.963147,1.07986,10.5979,9.63991,11.5388,1.02527
0.73,0.970433,1.08228,10.5883,9.63152,11.5276,1.02603
0.74,0.977709,1.08477,10.5785,9.62303,11.5162,1.02684
0.75,0.984733,1.08724,10.5687,9.61452,11.5049,1.02763
0.76,0.991831,1.08973,10.5588,9.60593,11.4934,1.02841
0.77,0.998658,1.09226,10.5489,9.59727,11.4818,1.02922
0.78,1.00552,1.09463,10.5389,9.58853,11.4704,1.02999
0.79,1.01216,1.09708,10.5288,9.57973,11.4589,1.03079
0.8,1.01876,1.09954,10.5186,9.57087,11.4473,1.03158
0.81,1.02522,1.10192,10.5084,9.5619,11.4356,1.03233
0.82,1.03163,1.10436,10.4981,9.55291,11.4239,1.03314
0.83,1.03794,1.10673,10.4878,9.54383,11.4123,1.03392
0.84,1.04417,1.10904,10.4774,9.5347,11.4006,1.03465
0.85,1.05028,1.11143,10.4669,9.5255,11.3888,1.03545
0.86,1.05634,1.11376,10.4564,9.51624,11.377,1.03621
0.87,1.06236,1.11606,10.4458,9.50693,11.3651,1.03693
0.88,1.06825,1.11839,10.4351,9.49751,11.3532,1.03771
0.89,1.07419,1.12062,10.4244,9.48807,11.3414,1.03845
0.9,1.08002,1.12285,10.4136,9.47859,11.3295,1.03916
0.91,1.08574,1.1251,10.4028,9.46901,11.3176,1.0399
0.92,1.09144,1.12734,10.3919,9.45939,11.3056,1.04063
0.93,1.09709,1.12953,10.381,9.44971,11.2935,1.04132
0.94,1.10266,1.13162,10.37,9.43993,11.2815,1.042
0.95,1.10821,1.13374,10.3589,9.4301,11.2695,1.04271
0.96,1.11368,1.13584,10.3478,9.42021,11.2574,1.04338
0.97,1.11922,1.13788,10.3367,9.41024,11.2453,1.04402
0.98,1.12458,1.13996,10.3255,9.40023,11.2331,1.04469
0.99,1.12984,1.14193,10.3142,9.39015,11.221,1.04534
1,1.13527,1.14387,10.3029,9.38,11.2088,1.04597
1.01,1.14049,1.14579,10.2915,9.36978,11.1966,1.04656
1.02,1.14574,1.14773,10.2801,9.35951,11.1843,1.04719
1.03,1.1509,1.14962,10.2686,9.34917,11.172,1.04779
1.04,1.15599,1.15144,10.257,9.33878,11.1598,1.04837
1.05,1.1611,1.15321,10.2455,9.32832,11.1474,1.04892
1.06,1.16611,1.155,10.2338,9.31777,11.1351,1.0495
1.07,1.1712,1.15676,10.2221,9.30716,11.1227,1.05005
1.08,1.1762,1.15849,10.2104,9.29649,11.1102,1.05059
1.09,1.18113,1.16012,10.1986,9.28573,11.0978,1.05109
1.1,1.18605,1.16173,10.1868,9.27493,11.0853,1.0516
1.11,1.19091,1.16339,10.1749,9.26408,11.0728,1.05213
1.12,1.19581,1.16499,10.163,9.25314,11.0602,1.05262
1.13,1.20064,1.16654,10.151,9.24213,11.0476,1.05309
1.14,1.20542,1.16804,10.139,9.2311,11.035,1.05353
1.15,1.21038,1.16954,10.1269,9.21998,11.0224,1.054
1.16,1.21529,1.17103,10.1148,9.20879,11.0097,1.05446
1.17,1.22004,1.17248,10.1026,9.19755,10.997,1.05489
1.18,1.22468,1.17389,10.0904,9.18622,10.9842,1.0553
1.19,1.22934,1.17521,10.0781,9.17483,10.9714,1.05568
1.2,1.23396,1.17655,10.0658,9.16337,10.9586,1.0561
1.21,1.23857,1.17789,10.0534,9.15186,10.9458,1.05651
1.22,1.2432,1.17919,10.041,9.14029,10.9329,1.05689
1.23,1.24775,1.18044,10.0286,9.12865,10.9199,1.05725
1.24,1.25228,1.1816,10.0161,9.11693,10.907,1.05759
1.25,1.25687,1.1828,10.0035,9.10518,10.8941,1.05795
1.26,1.26136,1.18401,9.99092,9.09336,10.881,1.05831
1.27,1.2658,1.18518,9.97828,9.08148,10.8679,1.05865
1.28,1.2702,1.18633,9.9656,9.06954,10.8548,1.05897
1.29,1.27466,1.18736,9.95288,9.05749,10.8418,1.05928
1.3,1.279,1.1884,9.94011,9.04542,10.8286,1.05957
1.31,1.28346,1.1895,9.9273,9.03329,10.8154,1.0599
1.32,1.28776,1.19057,9.91445,9.02109,10.8021,1.06021
1.33,1.29214,1.19162,9.90155,9.00884,10.7888,1.06051
1.34,1.29637,1.19257,9.88861,8.99649,10.7755,1.06079
1.35,1.30075,1.19355,9.87563,8.98414,10.7621,1.06107
1.36,1.30496,1.19452,9.8626,8.97173,10.7487,1.06133
1.37,1.30918,1.19552,9.84953,8.95927,10.7353,1.06161
1.38,1.31343,1.19649,9.83642,8.94675,10.7218,1.0619
1.39,1.31755,1.19738,9.82326,8.93415,10.7083,1.06217
1.4,1.32167,1.19831,9.81007,8.9215,10.6947,1.06243
1.41,1.32573,1.19923,9.79683,8.9088,10.6811,1.06269
1.42,1.32975,1.20012,9.78356,8.89605,10.6674,1.06293
1.43,1.33381,1.20096,9.77024,8.88326,10.6538,1.06317
1.44,1.33786,1.20183,9.75688,8.87038,10.6401,1.06345
1.45,1.34175,1.20273,9.74349,8.85749,10.6263,1.06371
1.46,1.34558,1.20364,9.73005,8.84456,10.6125,1.06396
1.47,1.34944,1.20452,9.71658,8.83159,10.5986,1.06422
1.48,1.35323,1.20536,9.70306,8.81857,10.5848,1.06446
1.49,1.35699,1.20619,9.68951,8.80547,10.5709,1.0647
1.5,1.36082,1.20704,9.67593,8.79234,10.5569,1.06494
1.51,1.36464,1.2079,9.6623,8.77916,10.5429,1.06518
1.52,1.36829,1.20873,9.64864,8.76594,10.5289,1.06544
1.53,1.37197,1.20957,9.63494,8.75268,10.5148,1.0657
1.54,1.37545,1.21042,9.6212,8.73937,10.5007,1.06595
1.55,1.37897,1.2113,9.60743,8.72606,10.4865,1.06621
1.56,1.38244,1.21216,9.59362,8.7127,10.4723,1.06645
1.57,1.38588,1.21297,9.57978,8.6993,10.4581,1.0667
1.58,1.38924,1.21381,9.56591,8.68584,10.4438,1.06694
1.59,1.39268,1.21467,9.552,8.67235,10.4295,1.06718
1.6,1.39604,1.21554,9.53806,8.65882,10.4151,1.06743
1.61,1.39931,1.2164,9.52408,8.64527,10.4008,1.0677
1.62,1.40254,1.21727,9.51008,8.63169,10.3864,1.06796
1.63,1.40565,1.21815,9.49604,8.61804,10.3719,1.06823
1.64,1.40878,1.21907,9.48197,8.60441,10.3574,1.0685
1.65,1.41193,1.21995,9.46786,8.59074,10.3429,1.06876
1.66,1.41498,1.22082,9.45373,8.57704,10.3283,1.06901
1.67,1.41798,1.22173,9.43957,8.5633,10.3137,1.06928
1.68,1.42093,1.22263,9.42537,8.54952,10.2991,1.06953
1.69,1.42403,1.22354,9.41115,8.53572,10.2844,1.06979
1.7,1.42698,1.22443,9.3969,8.52189,10.2697,1.07005
1.71,1.42988,1.22538,9.38261,8.50805,10.255,1.07034
1.72,1.43269,1.22631,9.3683,8.49414,10.2402,1.07062
1.73,1.43549,1.2273,9.35396,8.48025,10.2254,1.07091
1.74,1.43816,1.22823,9.33959,8.46633,10.2106,1.07119
1.75,1.44079,1.22919,9.3252,8.45239,10.1958,1.07148
1.76,1.44332,1.23017,9.31078,8.43842,10.1809,1.07176
1.77,1.44586,1.23115,9.29634,8.42442,10.1659,1.07204
1.78,1.44843,1.23209,9.28187,8.4104,10.151,1.07232
1.79,1.45092,1.23306,9.26737,8.39635,10.1361,1.07261
1.8,1.45331,1.23404,9.25285,8.3823,10.1211,1.07289
1.81,1.45563,1.23502,9.23831,8.36818,10.1061,1.07316
1.82,1.45806,1.236,9.22374,8.35409,10.0911,1.07344
1.83,1.46053,1.23698,9.20915,8.33997,10.076,1.07373
1.84,1.46285,1.238,9.19453,8.32583,10.0609,1.07403
1.85,1.46512,1.23902,9.17989,8.31165,10.0458,1.07433
1.86,1.46744,1.24002,9.16523,8.29745,10.0307,1.07463
1.87,1.46969,1.241,9.15055,8.28322,10.0156,1.07493
1.88,1.47182,1.24201,9.13584,8.26898,10.0004,1.07523
1.89,1.47393,1.24303,9.12111,8.25473,9.98521,1.07552
1.9,1.47598,1.24403,9.10636,8.24043,9.97,1.07582
1.91,1.47802,1.24503,9.09159,8.22615,9.95482,1.07612
1.92,1.48005,1.24603,9.0768,8.21184,9.93958,1.07641
1.93,1.48199,1.24705,9.062,8.19751,9.92432,1.0767
1.94,1.48396,1.24804,9.04717,8.18314,9.90904,1.07699
1.95,1.48595,1.249,9.03232,8.16876,9.89381,1.07729
1.96,1.48785,1.24996,9.01745,8.15435,9.87852,1.07758
1.97,1.48968,1.25094,9.00256,8.13993,9.86321,1.07786
1.98,1.49155,1.25192,8.98766,8.12549,9.84789,1.07815
1.99,1.49334,1.25284,8.97274,8.11102,9.8326,1.07843
2,1.49518,1.2538,8.95779,8.09657,9.81726,1.0787
2.01,1.49706,1.25476,8.94283,8.08209,9.8019,1.07898
2.02,1.49888,1.25573,8.92786,8.06759,9.78652,1.07925
2.03,1.50072,1.25664,8.91286,8.05305,9.77118,1.07954
2.04,1.50248,1.25758,8.89784,8.0385,9.7558,1.07982
2.05,1.50429,1.25852,8.88281,8.02392,9.74039,1.0801
2.06,1.50595,1.25946,8.86776,8.00934,9.72496,1.08038
2.07,1.50771,1.26032,8.85269,7.99471,9.70959,1.08065
2.08,1.50952,1.26123,8.83761,7.9801,9.69417,1.08092
2.09,1.51112,1.26214,8.82251,7.96546,9.67872,1.08119
2.1,1.51275,1.26305,8.80739,7.95081,9.66326,1.08145
2.11,1.51438,1.2639,8.79225,7.93612,9.64784,1.08172
2.12,1.51602,1.26475,8.7771,7.92141,9.63239,1.08197
2.13,1.5176,1.2656,8.76193,7.90668,9.6169,1.08223
2.14,1.51922,1.26646,8.74675,7.89194,9.6014,1.08248
2.15,1.52076,1.26726,8.73155,7.87718,9.58595,1.08273
2.16,1.52233,1.26806,8.71634,7.86239,9.57047,1.08297
2.17,1.52391,1.26888,8.70111,7.84761,9.55496,1.08321
2.18,1.52542,1.2697,8.68586,7.83281,9.53943,1.08345
2.19,1.52703,1.27046,8.6706,7.81799,9.52395,1.08368
2.2,1.52854,1.2712,8.65532,7.80311,9.50844,1.08391
2.21,1.5301,1.27196,8.64003,7.78824,9.4929,1.08413
2.22,1.5316,1.27271,8.62472,7.77333,9.47734,1.08435
2.23,1.53307,1.27341,8.6094,7.75842,9.46182,1.08457
2.24,1.53452,1.27409,8.59407,7.74346,9.44628,1.08478
2.25,1.53598,1.27482,8.57871,7.72853,9.43071,1.08498
2.26,1.53752,1.27554,8.56335,7.71357,9.41511,1.08519
2.27,1.53902,1.27621,8.54797,7.6986,9.39955,1.08539
2.28,1.54053,1.27685,8.53257,7.68358,9.38398,1.08558
2.29,1.54196,1.27751,8.51716,7.66855,9.36837,1.08577
2.3,1.54344,1.27817,8.50173,7.65349,9.35273,1.08596
2.31,1.54486,1.27878,8.48629,7.63843,9.33714,1.08614
2.32,1.54627,1.27937,8.47084,7.62333,9.32153,1.08632
2.33,1.54772,1.27999,8.45537,7.60823,9.30589,1.08649
2.34,1.54923,1.28062,8.43988,7.59312,9.29021,1.08667
2.35,1.55073,1.28121,8.42439,7.578,9.27457,1.08683
2.36,1.55208,1.28178,8.40887,7.56284,9.25891,1.087
2.37,1.55355,1.28234,8.39335,7.54765,9.24323,1.08716
2.38,1.55496,1.28291,8.3778,7.53244,9.22751,1.08731
2.39,1.55638,1.28343,8.36225,7.51721,9.21184,1.08747
2.4,1.5578,1.28394,8.34668,7.50197,9.19615,1.08761
2.41,1.55916,1.28446,8.3311,7.48669,9.18042,1.08776
2.42,1.56056,1.28499,8.3155,7.47143,9.16467,1.0879
2.43,1.56197,1.28549,8.29989,7.45614,9.14894,1.08804
2.44,1.56333,1.28597,8.28426,7.44083,9.13321,1.08817
2.45,1.56471,1.28644,8.26862,7.42547,9.11743,1.08831
2.46,1.56623,1.28692,8.25297,7.4101,9.10164,1.08844
2.47,1.5676,1.28736,8.2373,7.39472,9.08588,1.08856
2.48,1.56897,1.28779,8.22162,7.37932,9.0701,1.08869
2.49,1.5703,1.28821,8.20592,7.36388,9.05429,1.08881
2.5,1.57161,1.28867,8.19021,7.34846,9.03845,1.08893
2.51,1.57303,1.28908,8.17449,7.333,9.02265,1.08904
2.52,1.57441,1.28949,8.15876,7.31754,9.00681,1.08916
2.53,1.57575,1.2899,8.14301,7.30202,8.99095,1.08927
2.54,1.57703,1.29031,8.12724,7.28651,8.97505,1.08938
2.55,1.57833,1.29068,8.11147,7.27096,8.9592,1.08949
2.56,1.57963,1.29106,8.09568,7.25541,8.94331,1.08959
2.57,1.581,1.29142,8.07988,7.23981,8.92739,1.08969
2.58,1.58232,1.29183,8.06406,7.22424,8.91145,1.08979
2.59,1.58361,1.29218,8.04823,7.20863,8.89553,1.08989
2.6,1.5849,1.29255,8.03239,7.19302,8.87959,1.08998
2.61,1.58615,1.2929,8.01654,7.17735,8.86361,1.09008
2.62,1.58743,1.29326,8.00067,7.16168,8.84762,1.09017
2.63,1.58863,1.29357,7.98479,7.14599,8.83166,1.09026
2.64,1.58988,1.2939,7.9689,7.1303,8.81567,1.09035
2.65,1.59121,1.29422,7.95299,7.11455,8.79965,1.09044
2.66,1.5925,1.29458,7.93708,7.09885,8.7836,1.09053
2.67,1.59373,1.29489,7.92115,7.08311,8.76759,1.09061
2.68,1.59501,1.29522,7.9052,7.06736,8.75155,1.0907
2.69,1.59629,1.29553,7.88925,7.05157,8.73548,1.09078
2.7,1.5975,1.29585,7.87328,7.03577,8.7194,1.09087
2.71,1.59879,1.29614,7.8573,7.01996,8.70334,1.09095
2.72,1.59993,1.29646,7.84131,7.00414,8.68725,1.09104
2.73,1.60108,1.29677,7.8253,6.98828,8.67113,1.09113
2.74,1.60223,1.2971,7.80929,6.97245,8.655,1.09122
2.75,1.60338,1.29741,7.79326,6.9566,8.63889,1.09131
2.76,1.60452,1.29773,7.77722,6.94073,8.62275,1.0914
2.77,1.60568,1.29804,7.76117,6.92483,8.60657,1.09149
2.78,1.60686,1.29835,7.74511,6.90892,8.59041,1.09158
2.79,1.60797,1.29864,7.72904,6.893,8.57425,1.09167
2.8,1.60903,1.29895,7.71295,6.87707,8.55806,1.09176
2.81,1.61007,1.29927,7.69686,6.86112,8.54184,1.09185
2.82,1.61118,1.29958,7.68075,6.84518,8.52562,1.09194
2.83,1.61224,1.29989,7.66464,6.82923,8.50942,1.09203
2.84,1.61329,1.30022,7.64851,6.81326,8.49317,1.09212
2.85,1.6143,1.30054,7.63238,6.79727,8.4769,1.09221
2.86,1.61537,1.30084,7.61623,6.78126,8.46065,1.0923
2.87,1.61641,1.30115,7.60007,6.76526,8.44439,1.0924
2.88,1.61745,1.30146,7.5839,6.74923,8.42809,1.09249
2.89,1.61837,1.3018,7.56772,6.7332,8.41177,1.09258
2.9,1.61926,1.30211,7.55154,6.71717,8.39548,1.09267
2.91,1.62019,1.30243,7.53534,6.70114,8.37916,1.09276
2.92,1.62114,1.30276,7.51914,6.68508,8.36281,1.09284
2.93,1.6221,1.30309,7.50292,6.66901,8.34645,1.09293
2.94,1.62301,1.30338,7.4867,6.65292,8.33013,1.09302
2.95,1.62391,1.30371,7.47046,6.63684,8.31376,1.09311
2.96,1.6249,1.30402,7.45422,6.62073,8.29738,1.0932
2.97,1.6258,1.30436,7.43797,6.60463,8.28099,1.09328
2.98,1.62665,1.30467,7.42171,6.58853,8.26462,1.09337
2.99,1.62756,1.305,7.40544,6.57243,8.24822,1.09346
3,1.6284,1.30532,7.38916,6.55628,8.23181,1.09354
3.01,1.6292,1.30566,7.37287,6.54015,8.21538,1.09364
3.02,1.63003,1.30599,7.35658,6.52399,8.19897,1.09376
3.03,1.63088,1.30636,7.34027,6.50784,8.18253,1.09387
3.04,1.63169,1.30669,7.32396,6.49166,8.16607,1.09397
3.05,1.63243,1.30703,7.30764,6.47551,8.14962,1.09405
3.06,1.63318,1.30736,7.29131,6.45934,8.13317,1.09415
3.07,1.63406,1.30772,7.27498,6.44317,8.1167,1.09425
3.08,1.6349,1.30806,7.25863,6.42696,8.1002,1.09435
3.09,1.63563,1.30839,7.24228,6.41076,8.08373,1.09444
3.1,1.63647,1.30872,7.22592,6.39456,8.06725,1.09454
3.11,1.63717,1.30906,7.20956,6.37834,8.05074,1.09464
3.12,1.63792,1.3094,7.19318,6.3621,8.03422,1.09474
3.13,1.63857,1.30973,7.1768,6.34589,8.01773,1.09483
3.14,1.63926,1.31008,7.16041,6.32967,8.00121,1.09492
3.15,1.6399,1.31043,7.14402,6.31344,7.98468,1.09502
3.16,1.64057,1.31076,7.12762,6.29719,7.96814,1.09511
3.17,1.64115,1.31107,7.11121,6.28093,7.95163,1.0952
3.18,1.64178,1.3114,7.09479,6.26468,7.93509,1.09529
3.19,1.64238,1.31172,7.07838,6.2484,7.91853,1.09537
3.2,1.643,1.31205,7.06195,6.23214,7.90197,1.09545
3.21,1.64361,1.31238,7.04552,6.21587,7.88544,1.09555
3.22,1.64424,1.31274,7.02908,6.19961,7.86888,1.09565
3.23,1.64485,1.31308,7.01263,6.18331,7.8523,1.09575
3.24,1.64545,1.3134,6.99618,6.16702,7.83574,1.09585
3.25,1.64608,1.31371,6.97973,6.15071,7.81919,1.09595
3.26,1.64677,1.31405,6.96326,6.13441,7.80261,1.09605
3.27,1.64739,1.31435,6.94679,6.11806,7.78602,1.09614
3.28,1.64794,1.31467,6.93032,6.10176,7.76946,1.09624
3.29,1.64862,1.31498,6.91384,6.08544,7.75289,1.09633
3.3,1.64926,1.3153,6.89735,6.06912,7.73629,1.09642
3.31,1.64985,1.3156,6.88085,6.05276,7.71969,1.09651
3.32,1.65044,1.31588,6.86435,6.03641,7.70312,1.09659
3.33,1.6511,1.31617,6.84785,6.02005,7.68652,1.09668
3.34,1.65161,1.31646,6.83133,6.00369,7.6699,1.09676
3.35,1.6522,1.31673,6.81482,5.9873,7.65329,1.09683
3.36,1.65276,1.317,6.79829,5.97094,7.6367,1.09691
3.37,1.65327,1.31728,6.78176,5.95457,7.62009,1.09698
3.38,1.65382,1.31757,6.76523,5.93818,7.60345,1.09705
3.39,1.65437,1.31785,6.74869,5.92178,7.58683,1.09714
3.4,1.65494,1.31811,6.73214,5.90537,7.57022,1.09723
3.41,1.65545,1.3184,6.71559,5.88897,7.55359,1.09732
3.42,1.65602,1.31867,6.69904,5.87254,7.53694,1.0974
3.43,1.65653,1.31893,6.68247,5.85612,7.52032,1.09748
3.44,1.65704,1.31919,6.66591,5.8397,7.50369,1.09756
3.45,1.65751,1.31948,6.64934,5.82329,7.48703,1.09764
3.46,1.65796,1.31973,6.63276,5.80684,7.47037,1.09771
3.47,1.65844,1.31996,6.61618,5.79039,7.45374,1.09778
3.48,1.65898,1.3202,6.59959,5.77393,7.43709,1.09784
3.49,1.65952,1.32044,6.583,5.75748,7.42042,1.09791
3.5,1.66001,1.32066,6.5664,5.74099,7.40375,1.09797
3.51,1.66046,1.32087,6.5498,5.72454,7.38711,1.09802
3.52,1.66101,1.32109,6.5332,5.70807,7.37044,1.09807
3.53,1.6615,1.32132,6.51658,5.69159,7.35375,1.09812
3.54,1.66203,1.32153,6.49997,5.67509,7.33708,1.09819
3.55,1.66254,1.32174,6.48335,5.65859,7.32042,1.09826
3.56,1.66303,1.32197,6.46672,5.64209,7.30374,1.09833
3.57,1.66366,1.32219,6.45009,5.62557,7.28705,1.09839
3.58,1.66415,1.32238,6.43345,5.60904,7.27037,1.09845
3.59,1.66473,1.32258,6.41681,5.59253,7.25369,1.09851
3.6,1.66518,1.32281,6.40016,5.57601,7.23699,1.09857
3.61,1.66573,1.32301,6.3835,5.55947,7.22027,1.09863
3.62,1.66619,1.32318,6.36685,5.54293,7.20359,1.09868
3.63,1.6667,1.32335,6.35018,5.52636,7.18689,1.09873
3.64,1.6673,1.32353,6.33351,5.50981,7.17017,1.09877
3.65,1.6678,1.32369,6.31684,5.49322,7.15345,1.09881
3.66,1.66822,1.32385,6.30016,5.47666,7.13675,1.09885
3.67,1.66875,1.32401,6.28348,5.46009,7.12003,1.09889
3.68,1.66927,1.3242,6.26679,5.44352,7.10329,1.09893
3.69,1.66978,1.32436,6.25009,5.42692,7.08656,1.09898
3.7,1.67021,1.32453,6.23339,5.41032,7.06984,1.09904
3.71,1.67073,1.3247,6.21669,5.39371,7.05309,1.09909
3.72,1.67132,1.32487,6.19998,5.3771,7.03634,1.09914
3.73,1.67176,1.32501,6.18327,5.36047,7.0196,1.09919
3.74,1.67218,1.32518,6.16655,5.34385,7.00285,1.09923
3.75,1.67255,1.32536,6.14982,5.32724,6.98608,1.09928
3.76,1.6731,1.32551,6.1331,5.31061,6.9693,1.09931
3.77,1.6735,1.32564,6.11637,5.29396,6.95256,1.09935
3.78,1.67404,1.32577,6.09963,5.2773,6.93578,1.09938
3.79,1.67448,1.32592,6.08289,5.26065,6.91899,1.09942
3.8,1.67495,1.32603,6.06614,5.24397,6.90221,1.09944
3.81,1.67535,1.32616,6.04939,5.22731,6.88544,1.09947
