time,velocity,ratio,centerX,Xmax,Xmin,Ymax
0,0,1,21,20,22,1
0.01,0.0198277,1.00005,20.9999,19.9999,21.9999,1.00001
0.02,0.0397035,1.00012,20.9996,19.9997,21.9995,1.00004
0.03,0.0593787,1.00015,20.9991,19.9992,21.999,1.00005
0.04,0.0780839,1.0001,20.9984,19.9985,21.9983,1.00004
0.05,0.0958799,1.00005,20.9976,19.9976,21.9975,1.00001
0.06,0.113338,1.00002,20.9965,19.9965,21.9965,1.00001
0.07,0.130932,1.00006,20.9953,19.9953,21.9952,1
0.08,0.148623,1.00009,20.9939,19.994,21.9938,1.00001
0.09,0.166843,1.00006,20.9923,19.9924,21.9922,0.999976
0.1,0.188233,0.999953,20.9905,19.9905,21.9906,0.999981
0.11,0.214753,1.00003,20.9885,19.9886,21.9886,1.00003
0.12,0.242194,1.00024,20.9862,19.9864,21.9862,1.00009
0.13,0.267003,1.00031,20.9837,19.9839,21.9835,1.00011
0.14,0.286686,1.00016,20.9809,19.9811,21.9808,1.00004
0.15,0.304043,0.999901,20.978,19.9779,21.978,0.999944
0.16,0.322676,0.999813,20.9748,19.9748,21.9749,0.999898
0.17,0.350168,0.999968,20.9715,19.9715,21.9717,1.00007
0.18,0.37533,1.00053,20.9678,19.9683,21.9675,1.00013
0.19,0.393297,1.00047,20.964,19.9643,21.9637,1.00018
0.2,0.409859,1.0001,20.96,19.9601,21.9599,0.999962
0.21,0.435011,0.99959,20.9558,19.9555,21.9562,0.999944
0.22,0.460035,0.999956,20.9513,19.9513,21.9513,0.999945
0.23,0.477913,1.00031,20.9466,19.9468,21.9464,1.00011
0.24,0.497764,1.00048,20.9417,19.9421,21.9414,1.00015
0.25,0.524721,1.00029,20.9366,19.9369,21.9366,1.00013
0.26,0.538865,1.00002,20.9313,19.9313,21.9312,0.99995
0.27,0.557305,0.999728,20.9258,19.9255,21.926,0.999949
0.28,0.580834,1.00007,20.9201,19.9204,21.9203,1.00004
0.29,0.597693,1.00049,20.9142,19.9146,21.9138,1.00008
0.3,0.619189,1.00033,20.9082,19.9082,21.908,1.00022
0.31,0.637501,1.00041,20.9019,19.9024,21.9016,1.00001
0.32,0.653416,0.999905,20.8954,19.8953,21.8955,1.00001
0.33,0.675786,0.999949,20.8888,19.8887,21.8887,0.99997
0.34,0.689664,1.00016,20.8819,19.8823,21.882,1.00004
0.35,0.711189,1.00037,20.8749,19.8751,21.8747,1.00019
0.36,0.724792,1.00058,20.8678,19.8682,21.8672,1.00006
0.37,0.744621,0.999965,20.8604,19.8604,21.8607,1.00014
0.38,0.759845,1.00012,20.8529,19.8532,21.8527,0.999884
0.39,0.778133,0.999912,20.8452,19.8449,21.8453,1.00009
0.4,0.793541,1.00053,20.8373,19.8379,21.8369,1.00002
0.41,0.811332,1.00037,20.8293,19.8296,21.8293,1.00025
0.42,0.824415,1.00049,20.8212,19.8214,21.8205,1.00005
0.43,0.842779,1.00001,20.8128,19.8129,21.813,1.00008
0.44,0.85563,1.00004,20.8043,19.8045,21.8042,0.999917
0.45,0.875901,1.00009,20.7957,19.7956,21.7956,1.0001
0.46,0.884924,1.00051,20.7869,19.7873,21.7865,1.00012
0.47,0.899153,1.00058,20.778,19.7784,21.7776,1.00019
0.48,0.91188,1.00029,20.7689,19.7691,21.7687,1.0001
0.49,0.925436,1.00016,20.7597,19.7598,21.7594,0.999964
0.5,0.941691,0.999917,20.7504,19.7504,21.7507,1.00008
0.51,0.954104,1.00036,20.7409,19.7413,21.7405,0.99998
0.52,0.969824,1.00035,20.7313,19.7313,21.7312,1.0003
0.53,0.982803,1.00082,20.7215,19.7225,21.721,1.00006
0.54,0.994551,1.0001,20.7116,19.7114,21.7116,1.0002
0.55,1.01049,1.00023,20.7016,19.702,21.7013,0.999907
0.56,1.02116,0.999896,20.6915,19.6913,21.6918,1.00014
0.57,1.03383,1.00063,20.6812,19.6816,21.6804,1.00001
0.58,1.04804,1.00045,20.6708,19.6711,21.6708,1.00029
0.59,1.05937,1.00064,20.6602,19.6608,21.6597,1.00008
0.6,1.07091,1.00009,20.6496,19.6493,21.6495,1.00016
0.61,1.08507,1.00026,20.6388,19.6394,21.6387,0.999935
0.62,1.09617,1.00008,20.6279,19.6278,21.6278,1.00011
0.63,1.10744,1.0006,20.6169,19.6172,21.6162,1.00011
0.64,1.12022,1.00052,20.6057,19.6063,21.6058,1.00027
0.65,1.13364,1.00051,20.5945,19.5947,21.5939,1.0001
0.66,1.14414,1.0002,20.5831,19.5831,21.5828,1.00007
0.67,1.1573,1.00014,20.5716,19.5719,21.5717,1.00004
0.68,1.17096,1.00034,20.5599,19.5601,21.5596,1.00011
0.69,1.18278,1.0006,20.5482,19.5485,21.5476,1.00019
0.7,1.19308,1.00067,20.5363,19.5369,21.536,1.00018
0.71,1.20425,1.00039,20.5243,19.5243,21.5239,1.00018
0.72,1.21668,1.00033,20.5122,19.5126,21.512,1.00004
0.73,1.22814,1.0001,20.5,19.5001,21.5,1.0001
0.74,1.23811,1.00047,20.4876,19.4878,21.4871,1.00009
0.75,1.24778,1.00059,20.4752,19.4756,21.4749,1.00025
0.76,1.25851,1.0008,20.4627,19.4634,21.4622,1.00017
0.77,1.27016,1.00036,20.45,19.45,21.4497,1.00019
0.78,1.28161,1.0003,20.4373,19.4377,21.4372,1.00004
0.79,1.28994,1.00015,20.4244,19.4244,21.4244,1.00014
0.8,1.29888,1.00067,20.4115,19.4118,21.4107,1.00013
0.81,1.30798,1.00071,20.3984,19.399,21.3981,1.00026
0.82,1.31834,1.00073,20.3853,19.3859,21.3848,1.00018
0.83,1.32863,1.00026,20.3721,19.372,21.3718,1.00016
0.84,1.33828,1.00023,20.3587,19.3591,21.3587,1.00005
0.85,1.34665,1.00029,20.3453,19.3454,21.3451,1.00013
0.86,1.35476,1.00073,20.3318,19.3322,21.3311,1.00019
0.87,1.36294,1.00078,20.3182,19.3188,21.3178,1.00026
0.88,1.37216,1.0007,20.3045,19.305,21.304,1.0002
0.89,1.38194,1.0004,20.2908,19.291,21.2904,1.00011
0.9,1.39185,1.00014,20.2769,19.2771,21.2769,1.00007
0.91,1.40146,1.00028,20.2629,19.2631,21.2628,1.00011
0.92,1.41094,1.00066,20.2489,19.2493,21.2484,1.00023
0.93,1.42087,1.00092,20.2347,19.2355,21.2341,1.00025
0.94,1.43078,1.00071,20.2205,19.2209,21.2199,1.00024
0.95,1.44087,1.00053,20.2061,19.2065,21.2057,1.00013
0.96,1.45092,1.00034,20.1916,19.1919,21.1915,1.00015
0.97,1.46072,1.00055,20.1771,19.1774,21.1766,1.00014
0.98,1.47004,1.00061,20.1624,19.1628,21.162,1.00023
0.99,1.4788,1.00079,20.1477,19.1483,21.1471,1.0002
1,1.48744,1.00058,20.1328,19.1332,21.1325,1.00021
1.01,1.49632,1.0005,20.1179,19.1184,21.1176,1.0001
1.02,1.50502,1.00035,20.1029,19.1031,21.1027,1.00016
1.03,1.51361,1.00057,20.0878,19.0882,21.0874,1.00016
1.04,1.52231,1.00064,20.0726,19.0731,21.0723,1.00025
1.05,1.53108,1.00067,20.0573,19.0578,21.0569,1.0002
1.06,1.54015,1.00051,20.042,19.0423,21.0417,1.00019
1.07,1.54906,1.00049,20.0265,19.027,21.0263,1.00015
1.08,1.55699,1.00051,20.011,19.0113,21.0107,1.00019
1.09,1.56489,1.00065,19.9954,18.9958,20.995,1.00021
1.1,1.57285,1.00069,19.9797,18.9803,20.9794,1.00024
1.11,1.58131,1.00065,19.9639,18.9644,20.9635,1.00022
1.12,1.58961,1.00055,19.9481,18.9485,20.9478,1.00018
1.13,1.5978,1.0005,19.9321,18.9326,20.9319,1.00017
1.14,1.60558,1.00059,19.9161,18.9166,20.9158,1.0002
1.15,1.61319,1.0007,19.9,18.9005,20.8996,1.00025
1.16,1.62099,1.00074,19.8839,18.8845,20.8835,1.00022
1.17,1.62888,1.00063,19.8676,18.8681,20.8672,1.00021
1.18,1.63674,1.0006,19.8513,18.8518,20.8509,1.00017
1.19,1.64431,1.00058,19.8349,18.8354,20.8346,1.0002
1.2,1.65169,1.00076,19.8184,18.8189,20.8179,1.00021
1.21,1.65903,1.00081,19.8018,18.8024,20.8013,1.00027
1.22,1.6667,1.0008,19.7852,18.7858,20.7847,1.00024
1.23,1.67431,1.00066,19.7685,18.7689,20.768,1.00023
1.24,1.68202,1.00066,19.7517,18.7521,20.7512,1.00018
1.25,1.68956,1.00071,19.7349,18.7353,20.7344,1.00022
1.26,1.69633,1.00085,19.7179,18.7185,20.7173,1.00025
1.27,1.70279,1.00084,19.7009,18.7014,20.7003,1.00029
1.28,1.70907,1.00074,19.6839,18.6843,20.6833,1.00025
1.29,1.71585,1.00058,19.6668,18.6671,20.6664,1.00022
1.3,1.72251,1.00053,19.6496,18.6499,20.6492,1.00019
1.31,1.72914,1.00067,19.6323,18.6327,20.6318,1.00022
1.32,1.73548,1.00086,19.615,18.6156,20.6144,1.00024
1.33,1.74205,1.00088,19.5976,18.5982,20.597,1.00027
1.34,1.74905,1.00076,19.5801,18.5807,20.5797,1.00025
1.35,1.75634,1.0007,19.5626,18.5631,20.5622,1.00021
1.36,1.76272,1.00066,19.545,18.5455,20.5446,1.00021
1.37,1.76891,1.00074,19.5274,18.5279,20.5269,1.00024
1.38,1.77456,1.00079,19.5096,18.5102,20.5092,1.00029
1.39,1.78051,1.00082,19.4919,18.4925,20.4913,1.00027
1.4,1.78655,1.00082,19.474,18.4746,20.4734,1.00024
1.41,1.79275,1.00078,19.4561,18.4568,20.4556,1.0002
1.42,1.799,1.0007,19.4382,18.4386,20.4378,1.00025
1.43,1.8043,1.00083,19.4201,18.4207,20.4196,1.00026
1.44,1.8094,1.00087,19.4021,18.4027,20.4015,1.0003
1.45,1.81472,1.00083,19.384,18.3845,20.3834,1.00027
1.46,1.82059,1.00075,19.3658,18.3663,20.3653,1.00025
1.47,1.82699,1.00077,19.3475,18.3481,20.347,1.00022
1.48,1.83346,1.00079,19.3292,18.3298,20.3287,1.00025
1.49,1.83879,1.00089,19.3109,18.3115,20.3103,1.00028
1.5,1.84378,1.00086,19.2925,18.2931,20.292,1.00031
1.51,1.84895,1.0008,19.274,18.2745,20.2735,1.00028
1.52,1.85468,1.00078,19.2555,18.256,20.2549,1.00025
1.53,1.86075,1.00082,19.2369,18.2375,20.2363,1.00023
1.54,1.86631,1.00086,19.2183,18.2189,20.2177,1.00027
1.55,1.87135,1.00089,19.1996,18.2002,20.199,1.0003
1.56,1.87619,1.00085,19.1808,18.1815,20.1804,1.00031
1.57,1.88167,1.00086,19.1621,18.1627,20.1615,1.00027
1.58,1.88756,1.00087,19.1432,18.1439,20.1426,1.00023
1.59,1.89322,1.00083,19.1243,18.1249,20.1238,1.00025
1.6,1.89811,1.00082,19.1053,18.1059,20.1049,1.00029
1.61,1.90272,1.00086,19.0863,18.0869,20.0858,1.00031
1.62,1.90801,1.00097,19.0673,18.068,20.0666,1.00029
1.63,1.91382,1.00094,19.0482,18.0489,20.0475,1.00026
1.64,1.91915,1.00081,19.029,18.0296,20.0285,1.00026
1.65,1.9242,1.00072,19.0098,18.0103,20.0094,1.00029
1.66,1.92922,1.00088,18.9905,17.9911,19.9899,1.0003
1.67,1.93452,1.00106,18.9712,17.972,19.9705,1.00029
1.68,1.93958,1.00103,18.9518,17.9526,19.9511,1.00029
1.69,1.94466,1.00077,18.9324,17.9329,19.932,1.00031
1.7,1.94974,1.00074,18.9129,17.9134,19.9125,1.00028
1.71,1.95533,1.00094,18.8934,17.8941,19.8927,1.00026
1.72,1.96044,1.00107,18.8738,17.8747,19.8731,1.00028
1.73,1.96508,1.0009,18.8542,17.8548,19.8537,1.00035
1.74,1.96964,1.00083,18.8345,17.835,19.8341,1.00034
1.75,1.97499,1.00096,18.8148,17.8155,19.8141,1.00026
1.76,1.97984,1.00099,18.795,17.7959,19.7944,1.00024
1.77,1.98404,1.0008,18.7752,17.7757,19.7748,1.00032
1.78,1.98833,1.00086,18.7554,17.7558,19.7549,1.00037
1.79,1.99337,1.00113,18.7355,17.7363,19.7346,1.0003
1.8,1.99706,1.0011,18.7155,17.7164,19.7147,1.00026
1.81,2.00096,1.00071,18.6955,17.696,19.6952,1.00033
1.82,2.00522,1.00077,18.6755,17.6759,19.675,1.00034
1.83,2.00944,1.00113,18.6554,17.6563,19.6546,1.00025
1.84,2.01189,1.00109,18.6353,17.6362,19.6346,1.00029
1.85,2.01494,1.00081,18.6152,17.6156,19.6148,1.0004
1.86,2.01891,1.00093,18.595,17.5956,19.5944,1.00033
1.87,2.02126,1.00112,18.5748,17.5758,19.574,1.00021
1.88,2.02331,1.00085,18.5546,17.5552,19.5541,1.0003
1.89,2.02662,1.00081,18.5343,17.5347,19.5339,1.00039
1.9,2.02929,1.00111,18.514,17.5149,19.5132,1.0003
1.91,2.03066,1.00112,18.4937,17.4946,19.4929,1.00025
1.92,2.0333,1.00081,18.4734,17.4739,19.473,1.00035
1.93,2.03631,1.00085,18.4531,17.4536,19.4525,1.00033
1.94,2.03786,1.00106,18.4327,17.4336,19.4319,1.00025
1.95,2.04026,1.00101,18.4123,17.4131,19.4117,1.00032
1.96,2.04359,1.00095,18.3919,17.3925,19.3913,1.00038
1.97,2.04608,1.00103,18.3714,17.3722,19.3708,1.00031
1.98,2.04863,1.00098,18.351,17.3517,19.3503,1.00028
1.99,2.05227,1.0009,18.3305,17.3311,19.3299,1.00032
2,2.05523,1.00097,18.3099,17.3106,19.3093,1.00032
2.01,2.05758,1.00101,18.2894,17.2901,19.2887,1.00031
2.02,2.0612,1.00104,18.2688,17.2695,19.2681,1.00035
2.03,2.06459,1.00103,18.2481,17.2489,19.2475,1.00032
2.04,2.06701,1.00091,18.2275,17.2282,19.2269,1.00029
2.05,2.07024,1.0009,18.2068,17.2074,19.2062,1.00033
2.06,2.0735,1.00104,18.1861,17.1868,19.1854,1.00032
2.07,2.07559,1.00105,18.1653,17.1661,19.1647,1.00032
2.08,2.07859,1.00099,18.1446,17.1452,19.144,1.00036
2.09,2.08191,1.00102,18.1238,17.1245,19.1231,1.00033
2.1,2.08379,1.00099,18.1029,17.1037,19.1023,1.00028
2.11,2.08686,1.00094,18.0821,17.0827,19.0815,1.00034
2.12,2.08989,1.00104,18.0612,17.0619,19.0605,1.00035
2.13,2.09173,1.00108,18.0403,17.0411,19.0396,1.00032
2.14,2.09493,1.00103,18.0193,17.0201,19.0187,1.00035
2.15,2.098,1.00102,17.9984,16.9991,18.9978,1.00034
2.16,2.10008,1.00096,17.9774,16.9781,18.9768,1.0003
2.17,2.10302,1.00098,17.9564,16.957,18.9558,1.00034
2.18,2.10594,1.00108,17.9353,16.9361,18.9347,1.00034
2.19,2.10791,1.00106,17.9143,16.9151,18.9136,1.00033
2.2,2.11105,1.00102,17.8932,16.8938,18.8925,1.00036
2.21,2.11376,1.00103,17.872,16.8728,18.8714,1.00032
2.22,2.11582,1.001,17.8509,16.8516,18.8503,1.00031
2.23,2.11896,1.00101,17.8297,16.8304,18.8291,1.00036
2.24,2.12111,1.00109,17.8085,16.8093,18.8078,1.00034
2.25,2.12337,1.00109,17.7873,16.7881,18.7866,1.00035
2.26,2.12679,1.00106,17.7661,16.7668,18.7654,1.00036
2.27,2.12888,1.00102,17.7448,16.7455,18.7441,1.00032
2.28,2.13144,1.00101,17.7235,16.7242,18.7228,1.00034
2.29,2.13423,1.00109,17.7021,16.7029,18.7015,1.00036
2.3,2.13607,1.00109,17.6808,16.6816,18.6801,1.00034
2.31,2.13885,1.00106,17.6594,16.6601,18.6587,1.00037
2.32,2.14166,1.00107,17.638,16.6388,18.6374,1.00034
2.33,2.14371,1.00104,17.6166,16.6174,18.6159,1.00032
2.34,2.14678,1.00103,17.5951,16.5958,18.5945,1.00036
2.35,2.14875,1.00108,17.5737,16.5745,18.573,1.00034
2.36,2.15098,1.00111,17.5522,16.5529,18.5514,1.00036
2.37,2.15403,1.00112,17.5306,16.5314,18.5299,1.00037
2.38,2.15599,1.00105,17.5091,16.5099,18.5084,1.00032
2.39,2.15873,1.00102,17.4875,16.4882,18.4869,1.00035
2.4,2.16122,1.0011,17.4659,16.4667,18.4652,1.00035
2.41,2.16318,1.00112,17.4443,16.4451,18.4436,1.00035
2.42,2.166,1.00109,17.4226,16.4234,18.422,1.00038
2.43,2.16811,1.00108,17.401,16.4018,18.4003,1.00034
2.44,2.17054,1.00107,17.3793,16.38,18.3786,1.00036
2.45,2.17313,1.00111,17.3576,16.3584,18.3569,1.00036
2.46,2.17486,1.00109,17.3358,16.3366,18.3351,1.00034
2.47,2.17761,1.00108,17.3141,16.3148,18.3134,1.00038
2.48,2.17947,1.00112,17.2923,16.2931,18.2916,1.00035
2.49,2.18183,1.00112,17.2705,16.2712,18.2697,1.00037
2.5,2.18438,1.00112,17.2486,16.2494,18.2479,1.00037
2.51,2.18607,1.00105,17.2268,16.2276,18.2261,1.00033
2.52,2.18865,1.00108,17.2049,16.2056,18.2042,1.00038
2.53,2.19035,1.00115,17.183,16.1839,18.1823,1.00036
2.54,2.1925,1.00115,17.1611,16.1619,18.1603,1.00038
2.55,2.19495,1.00113,17.1392,16.14,18.1385,1.00037
2.56,2.19669,1.00105,17.1172,16.118,18.1165,1.00033
2.57,2.19944,1.00107,17.0952,16.0959,18.0946,1.00037
2.58,2.20113,1.00115,17.0732,16.0741,18.0725,1.00036
2.59,2.20331,1.00117,17.0512,16.052,18.0504,1.00039
2.6,2.20582,1.00115,17.0292,16.03,18.0284,1.00038
2.61,2.20747,1.00109,17.0071,16.0079,18.0064,1.00035
2.62,2.21023,1.00107,16.985,15.9857,17.9843,1.00038
2.63,2.21175,1.00113,16.9629,15.9638,17.9622,1.00035
2.64,2.21396,1.00116,16.9408,15.9415,17.94,1.00039
2.65,2.21595,1.00117,16.9186,15.9195,17.9179,1.00038
2.66,2.21764,1.00114,16.8964,15.8973,17.8957,1.00037
2.67,2.22012,1.00112,16.8743,15.875,17.8735,1.00038
2.68,2.22136,1.00109,16.852,15.8529,17.8514,1.00034
2.69,2.22375,1.00113,16.8298,15.8306,17.8291,1.00039
2.7,2.22517,1.00118,16.8076,15.8085,17.8069,1.00037
2.71,2.2272,1.00117,16.7853,15.7861,17.7845,1.00039
2.72,2.22945,1.00115,16.763,15.7639,17.7623,1.00038
2.73,2.23088,1.00112,16.7407,15.7415,17.74,1.00036
2.74,2.23326,1.00113,16.7184,15.7192,17.7177,1.00038
2.75,2.2342,1.00113,16.6961,15.6969,17.6954,1.00036
2.76,2.23657,1.00117,16.6737,15.6745,17.673,1.0004
2.77,2.2379,1.00118,16.6513,15.6523,17.6507,1.00037
2.78,2.23968,1.00116,16.629,15.6297,17.6282,1.00039
2.79,2.2415,1.00115,16.6066,15.6074,17.6059,1.00037
2.8,2.24266,1.00114,16.5841,15.5849,17.5834,1.00037
2.81,2.24467,1.00117,16.5617,15.5625,17.561,1.00039
2.82,2.24543,1.00114,16.5392,15.5401,17.5386,1.00037
2.83,2.24796,1.00116,16.5168,15.5175,17.516,1.0004
2.84,2.24892,1.00115,16.4943,15.4952,17.4936,1.00036
2.85,2.25078,1.00115,16.4718,15.4725,17.471,1.00039
2.86,2.25203,1.00117,16.4493,15.4502,17.4486,1.00038
2.87,2.25317,1.0012,16.4268,15.4276,17.426,1.00039
2.88,2.25499,1.0012,16.4042,15.4051,17.4035,1.0004
2.89,2.25585,1.00117,16.3817,15.3825,17.3809,1.00037
2.9,2.25785,1.00114,16.3591,15.3599,17.3584,1.00039
2.91,2.25842,1.00113,16.3365,15.3374,17.3358,1.00036
2.92,2.26045,1.00117,16.3139,15.3147,17.3131,1.0004
2.93,2.2611,1.00119,16.2913,15.2923,17.2906,1.00038
2.94,2.2628,1.0012,16.2687,15.2695,17.2679,1.00041
2.95,2.26393,1.00119,16.2461,15.247,17.2454,1.00038
2.96,2.26518,1.00118,16.2234,15.2242,17.2226,1.00039
2.97,2.26667,1.00117,16.2007,15.2016,17.2,1.00038
2.98,2.2674,1.00119,16.1781,15.1789,17.1773,1.00038
2.99,2.26916,1.0012,16.1554,15.1562,17.1546,1.0004
3,2.26968,1.00116,16.1327,15.1336,17.132,1.00037
3.01,2.2716,1.00116,16.11,15.1107,17.1092,1.0004
3.02,2.27205,1.00117,16.0873,15.0882,17.0866,1.00036
3.03,2.27375,1.00117,16.0645,15.0653,17.0637,1.0004
3.04,2.27439,1.00121,16.0418,15.0428,17.0411,1.00038
3.05,2.27595,1.00122,16.0191,15.0198,17.0182,1.00041
3.06,2.27704,1.0012,15.9963,14.9972,16.9956,1.00039
3.07,2.27817,1.0012,15.9735,14.9743,16.9727,1.00039
3.08,2.27947,1.00117,15.9507,14.9516,16.95,1.00039
3.09,2.28002,1.0012,15.9279,14.9288,16.9272,1.00038
3.1,2.28157,1.00121,15.9051,14.9059,16.9043,1.0004
3.11,2.28201,1.00119,15.8823,14.8832,16.8816,1.00038
3.12,2.28361,1.00117,15.8595,14.8602,16.8587,1.00041
3.13,2.28406,1.00117,15.8366,14.8376,16.836,1.00037
3.14,2.28585,1.00118,15.8138,14.8145,16.813,1.0004
3.15,2.28623,1.0012,15.7909,14.7919,16.7903,1.00038
3.16,2.28795,1.00123,15.7681,14.7688,16.7672,1.00041
3.17,2.28859,1.00122,15.7452,14.7462,16.7445,1.00039
3.18,2.28981,1.00121,15.7223,14.723,16.7214,1.00041
3.19,2.29066,1.00117,15.6994,14.7003,16.6987,1.00038
3.2,2.29161,1.00122,15.6765,14.6773,16.6756,1.0004
3.21,2.29285,1.00121,15.6535,14.6544,16.6528,1.0004
3.22,2.29349,1.00124,15.6306,14.6315,16.6298,1.0004
3.23,2.29477,1.00121,15.6077,14.6085,16.6069,1.0004
3.24,2.29515,1.00119,15.5847,14.5856,16.584,1.00038
3.25,2.29657,1.00117,15.5618,14.5625,16.561,1.0004
3.26,2.29684,1.00118,15.5388,14.5397,16.5381,1.00038
3.27,2.29849,1.0012,15.5158,14.5165,16.515,1.00042
3.28,2.29873,1.00121,15.4928,14.4939,16.4922,1.00038
3.29,2.30061,1.0012,15.4698,14.4705,16.469,1.00041
3.3,2.30074,1.00119,15.4468,14.4478,16.4462,1.00037
3.31,2.30207,1.00121,15.4238,14.4245,16.4229,1.00041
3.32,2.30237,1.00122,15.4008,14.4018,16.4002,1.00039
3.33,2.30346,1.00124,15.3778,14.3785,16.3769,1.00042
3.34,2.3039,1.00121,15.3547,14.3557,16.3541,1.00039
3.35,2.30481,1.00123,15.3317,14.3324,16.3308,1.00041
3.36,2.30545,1.00118,15.3086,14.3096,16.308,1.00039
3.37,2.30626,1.00124,15.2856,14.2864,16.2847,1.0004
3.38,2.307,1.00121,15.2625,14.2634,16.2618,1.0004
3.39,2.30754,1.00127,15.2394,14.2403,16.2386,1.0004
3.4,2.30862,1.00121,15.2164,14.2172,16.2156,1.0004
3.41,2.30895,1.00123,15.1933,14.1942,16.1925,1.00039
3.42,2.31017,1.0012,15.1702,14.171,16.1694,1.0004
3.43,2.3104,1.00122,15.1471,14.148,16.1464,1.00039
3.44,2.31156,1.00121,15.124,14.1247,16.1231,1.00041
3.45,2.31179,1.00121,15.1008,14.1018,16.1002,1.00039
3.46,2.31307,1.00119,15.0777,14.0784,16.0768,1.00041
3.47,2.31301,1.00118,15.0546,14.0556,16.054,1.00038
3.48,2.31439,1.0012,15.0314,14.0321,16.0305,1.00041
3.49,2.31441,1.0012,15.0083,14.0094,16.0077,1.00038
3.5,2.31575,1.00124,14.9852,13.9858,15.9842,1.00042
3.51,2.31583,1.00121,14.962,13.9631,15.9614,1.00038
3.52,2.31721,1.00123,14.9388,13.9395,15.9379,1.00041
3.53,2.31719,1.0012,14.9157,13.9167,15.9151,1.00038
3.54,2.3184,1.00124,14.8925,13.8932,15.8915,1.00042
3.55,2.31839,1.00122,14.8693,13.8704,15.8687,1.00039
3.56,2.31961,1.00125,14.8461,13.8468,15.8452,1.00042
3.57,2.31985,1.0012,14.8229,13.8239,15.8223,1.00039
3.58,2.32071,1.00125,14.7997,13.8005,15.7988,1.00041
3.59,2.32114,1.00119,14.7765,13.7775,15.7759,1.00039
3.6,2.32196,1.00126,14.7533,13.7541,15.7524,1.00042
3.61,2.32244,1.00121,14.7301,13.731,15.7294,1.0004
3.62,2.32337,1.00127,14.7068,13.7077,15.706,1.00042
3.63,2.32403,1.0012,14.6836,13.6845,15.6829,1.0004
3.64,2.325,1.00126,14.6604,13.6613,15.6595,1.00041
3.65,2.32575,1.0012,14.6371,13.638,15.6363,1.0004
3.66,2.32635,1.00128,14.6138,13.6148,15.613,1.00041
3.67,2.32705,1.00122,14.5906,13.5914,15.5898,1.0004
3.68,2.32758,1.00128,14.5673,13.5683,15.5665,1.00041
3.69,2.32832,1.00121,14.544,13.5448,15.5432,1.0004
3.7,2.32898,1.00127,14.5207,13.5218,15.52,1.0004
3.71,2.32991,1.00121,14.4974,13.4982,15.4966,1.0004
3.72,2.33062,1.00127,14.4741,13.4752,15.4735,1.0004
3.73,2.33144,1.00123,14.4508,13.4516,15.4499,1.00041
3.74,2.33201,1.00127,14.4275,13.4286,15.4269,1.0004
3.75,2.33311,1.00123,14.4042,13.4049,15.4032,1.00041
3.76,2.33353,1.00124,14.3808,13.3819,15.3802,1.0004
3.77,2.33464,1.00123,14.3575,13.3582,15.3566,1.00041
3.78,2.33519,1.00124,14.3342,13.3353,15.3336,1.0004
3.79,2.33645,1.00124,14.3108,13.3115,15.3098,1.00041
3.8,2.33693,1.00124,14.2874,13.2885,15.2869,1.0004
