time,velocity,ratio,centerX,Xmax,Xmin,Ymax
0,0,1,8.5,7.5,9.5,1
0.01,0.0198219,1.00005,8.4999,7.49994,9.49986,1.00001
0.02,0.0396875,1.00012,8.4996,7.49968,9.49953,1.00004
0.03,0.0593525,1.00015,8.49911,7.49921,9.49902,1.00005
0.04,0.0780587,1.0001,8.49842,7.49848,9.49835,1.00004
0.05,0.0958464,1.00005,8.49755,7.49758,9.49751,1.00001
0.06,0.113298,1.00002,8.49651,7.49651,9.49649,1.00001
0.07,0.130876,1.00006,8.49529,7.49534,9.49523,1
0.08,0.148564,1.00009,8.49389,7.49397,9.4938,1.00001
0.09,0.166782,1.00006,8.49232,7.4924,9.49224,0.999976
0.1,0.188108,0.999954,8.49055,7.49054,9.4906,0.999981
0.11,0.214522,1.00003,8.48854,7.4886,9.4886,1.00003
0.12,0.241845,1.00023,8.48626,7.48645,9.48616,1.00009
0.13,0.266565,1.0003,8.48371,7.48394,9.48356,1.00011
0.14,0.286249,1.00016,8.48094,7.48108,9.48083,1.00004
0.15,0.303611,0.999903,8.47799,7.47795,9.47804,0.999945
0.16,0.322196,0.999816,8.47487,7.47479,9.47496,0.999897
0.17,0.349647,0.999964,8.47152,7.47151,9.47172,1.00007
0.18,0.374933,1.00053,8.46788,7.46833,9.46754,1.00013
0.19,0.392903,1.00047,8.46404,7.4643,9.46371,1.00018
0.2,0.409428,1.0001,8.46003,7.46016,9.4599,0.999964
0.21,0.434413,0.999591,8.45583,7.45559,9.4563,0.999943
0.22,0.459488,0.999957,8.45135,7.45139,9.45137,0.999944
0.23,0.477439,1.00031,8.44666,7.44682,9.44642,1.00011
0.24,0.497139,1.00048,8.4418,7.44218,9.44151,1.00015
0.25,0.524222,1.00029,8.43669,7.43698,9.43666,1.00013
0.26,0.538389,1.00002,8.43137,7.43136,9.43123,0.999953
0.27,0.556691,0.999736,8.42591,7.42564,9.42606,0.999946
0.28,0.580392,1.00007,8.42022,7.42046,9.42041,1.00004
0.29,0.597248,1.00049,8.41433,7.41472,9.41389,1.00008
0.3,0.618553,1.00032,8.40826,7.40829,9.40807,1.00022
0.31,0.636969,1.0004,8.40197,7.4025,9.40172,1.00001
0.32,0.652731,0.999911,8.39553,7.39546,9.39564,0.999999
0.33,0.675171,0.99994,8.38888,7.38876,9.38882,0.99997
0.34,0.68897,1.00016,8.38206,7.38239,9.38215,1.00004
0.35,0.710359,1.00036,8.37507,7.37521,9.37487,1.00019
0.36,0.724035,1.00058,8.3679,7.36836,9.36732,1.00006
0.37,0.74364,0.999976,8.36057,7.36053,9.36086,1.00014
0.38,0.759016,1.00012,8.35305,7.3533,9.35284,0.99989
0.39,0.77724,0.999917,8.34539,7.34512,9.34545,1.00008
0.4,0.792928,1.00052,8.33752,7.33806,9.33708,1.00003
0.41,0.810494,1.00039,8.32952,7.32977,9.32947,1.00024
0.42,0.823832,1.00047,8.32134,7.32154,9.32071,1.00006
0.43,0.842053,1.00001,8.31302,7.31308,9.31318,1.00007
0.44,0.855208,1.00001,8.30453,7.30463,9.30445,0.999928
0.45,0.875705,1.00011,8.29588,7.29585,9.29579,1.00008
0.46,0.884485,1.00047,8.28709,7.28739,9.28671,1.00013
0.47,0.898812,1.0006,8.27816,7.27864,9.27781,1.00018
0.48,0.911314,1.00028,8.26913,7.2693,9.26896,1.00011
0.49,0.925173,1.00018,8.25993,7.26003,9.25959,0.999956
0.5,0.941246,0.999899,8.25061,7.2506,9.25097,1.00008
0.51,0.953674,1.00036,8.24113,7.24152,9.24074,0.999973
0.52,0.969503,1.00034,8.23151,7.23147,9.2314,1.00031
0.53,0.98225,1.00083,8.22176,7.22272,9.22119,1.00006
0.54,0.994217,1.0001,8.21186,7.21163,9.21184,1.0002
0.55,1.01009,1.00024,8.20185,7.20226,9.20158,0.9999
0.56,1.0205,0.999874,8.1917,7.19155,9.19209,1.00014
0.57,1.03338,1.00063,8.18142,7.18185,9.18063,1.00002
0.58,1.0477,1.00046,8.17102,7.1714,9.17105,1.00028
0.59,1.0588,1.00064,8.16049,7.16103,9.15992,1.00008
0.6,1.07035,1.0001,8.14983,7.14962,9.14974,1.00016
0.61,1.08447,1.00025,8.13906,7.13965,9.13903,0.999935
0.62,1.09525,1.00009,8.12817,7.12806,9.1281,1.00011
0.63,1.10669,1.0006,8.11715,7.11749,9.11652,1.00011
0.64,1.11952,1.00053,8.10602,7.10663,9.10611,1.00027
0.65,1.13251,1.00049,8.09477,7.09496,9.09417,1.0001
0.66,1.14367,1.0002,8.08338,7.08345,9.08318,1.00006
0.67,1.15707,1.00011,8.07187,7.07217,9.07203,1.00004
0.68,1.17121,1.00032,8.06024,7.06037,9.05993,1.0001
0.69,1.18278,1.0006,8.04848,7.0488,9.04798,1.00019
0.7,1.19342,1.00069,8.0366,7.03727,9.03626,1.00018
0.71,1.20504,1.00038,8.02459,7.02461,9.02423,1.00018
0.72,1.21763,1.00031,8.01248,7.01289,9.01232,1.00003
0.73,1.2293,1.00009,8.00025,7.00034,9.00034,1.0001
0.74,1.23897,1.00047,7.98791,6.98811,8.98733,1.00008
0.75,1.2486,1.0006,7.97547,6.97589,8.97523,1.00027
0.76,1.25932,1.00082,7.96292,6.96372,8.96243,1.00017
0.77,1.27103,1.00035,7.95027,6.95027,8.94996,1.00019
0.78,1.28277,1.0003,7.93751,6.93796,8.93742,1.00003
0.79,1.29093,1.00012,7.92465,6.92461,8.92465,1.00014
0.8,1.30005,1.00068,7.91169,6.91207,8.91095,1.00013
0.81,1.3092,1.00073,7.89864,6.89926,8.89835,1.00027
0.82,1.31946,1.00073,7.88549,6.88613,8.88503,1.00018
0.83,1.32975,1.00023,7.87224,6.87218,8.87204,1.00016
0.84,1.33939,1.00022,7.85891,6.85926,8.8589,1.00004
0.85,1.34773,1.0003,7.84548,6.84561,8.84527,1.00013
0.86,1.35587,1.00075,7.83196,6.8324,8.83128,1.00019
0.87,1.36422,1.0008,7.81836,6.81901,8.81794,1.00027
0.88,1.37364,1.0007,7.80466,6.80513,8.80413,1.0002
0.89,1.38339,1.00037,7.79087,6.79108,8.79056,1.00011
0.9,1.39321,1.00012,7.77699,6.77716,8.77706,1.00007
0.91,1.40303,1.00028,7.76301,6.76318,8.76283,1.00011
0.92,1.41246,1.00069,7.74894,6.74937,8.74846,1.00024
0.93,1.4225,1.00094,7.73477,6.73554,8.73417,1.00025
0.94,1.43247,1.0007,7.7205,6.72091,8.71998,1.00024
0.95,1.44265,1.00051,7.70612,6.7065,8.70572,1.00012
0.96,1.45251,1.00032,7.69164,6.69184,8.69149,1.00014
0.97,1.46233,1.00055,7.67706,6.67744,8.6766,1.00014
0.98,1.47148,1.00063,7.66239,6.66279,8.66202,1.00024
0.99,1.48025,1.00081,7.64762,6.64826,8.64703,1.0002
1,1.48877,1.00058,7.63277,6.63314,8.6324,1.00021
1.01,1.49764,1.00048,7.61783,6.61829,8.61752,1.00009
1.02,1.50693,1.00032,7.60281,6.603,8.60267,1.00015
1.03,1.51566,1.00057,7.58769,6.58813,8.58731,1.00016
1.04,1.52443,1.00065,7.57249,6.57299,8.57221,1.00025
1.05,1.53338,1.00068,7.5572,6.55771,8.55676,1.0002
1.06,1.54262,1.0005,7.54182,6.54216,8.54155,1.00019
1.07,1.55151,1.00047,7.52635,6.52676,8.52609,1.00014
1.08,1.55974,1.00049,7.51079,6.51107,8.51046,1.00018
1.09,1.56774,1.00065,7.49515,6.4956,8.49472,1.00021
1.1,1.5757,1.0007,7.47943,6.47999,8.4791,1.00025
1.11,1.58416,1.00066,7.46363,6.46406,8.46318,1.00022
1.12,1.59246,1.00053,7.44775,6.44817,8.44746,1.00017
1.13,1.60062,1.00047,7.43178,6.43221,8.4316,1.00017
1.14,1.60838,1.00058,7.41574,6.41615,8.41536,1.00019
1.15,1.61586,1.0007,7.39961,6.40012,8.39921,1.00024
1.16,1.62355,1.00077,7.38341,6.38409,8.38299,1.00022
1.17,1.63147,1.00065,7.36713,6.36759,8.36672,1.00022
1.18,1.63941,1.00061,7.35077,6.35129,8.3504,1.00016
1.19,1.64693,1.00057,7.33434,6.33481,8.33406,1.0002
1.2,1.65429,1.00076,7.31783,6.31838,8.31727,1.00021
1.21,1.6619,1.0008,7.30124,6.30179,8.30074,1.00028
1.22,1.66956,1.00082,7.28458,6.2852,8.28404,1.00024
1.23,1.67739,1.00067,7.26785,6.26823,8.26737,1.00023
1.24,1.68503,1.00068,7.25104,6.2515,8.25051,1.00018
1.25,1.69222,1.00068,7.23416,6.2346,8.23367,1.00022
1.26,1.69862,1.00083,7.21721,6.21772,8.21654,1.00025
1.27,1.70493,1.0008,7.2002,6.20064,8.19962,1.0003
1.28,1.71116,1.00074,7.18312,6.18357,8.18261,1.00025
1.29,1.71782,1.00056,7.16597,6.16629,8.1656,1.00022
1.3,1.72454,1.00056,7.14875,6.14911,8.14836,1.00018
1.31,1.73112,1.0007,7.13147,6.13197,8.13099,1.00021
1.32,1.73743,1.00087,7.11413,6.11478,8.11355,1.00025
1.33,1.74407,1.00088,7.09672,6.09736,8.09618,1.00028
1.34,1.75126,1.00079,7.07924,6.0798,8.07874,1.00025
1.35,1.75793,1.00069,7.0617,6.06225,8.0613,1.00021
1.36,1.76436,1.00064,7.04409,6.04457,8.04372,1.00021
1.37,1.77051,1.00072,7.02642,6.02694,8.02599,1.00024
1.38,1.77613,1.00077,7.00868,6.00923,8.00827,1.00029
1.39,1.78201,1.00088,6.99089,5.99154,7.99031,1.00027
1.4,1.7881,1.00086,6.97304,5.97367,7.97243,1.00024
1.41,1.79446,1.00073,6.95512,5.95571,7.95468,1.00022
1.42,1.80047,1.00068,6.93715,5.9376,7.93675,1.00025
1.43,1.80569,1.00083,6.91912,5.91969,7.91854,1.00026
1.44,1.8107,1.00088,6.90104,5.90166,7.9005,1.00029
1.45,1.81611,1.00083,6.88291,5.88348,7.88236,1.00027
1.46,1.82221,1.00077,6.86471,5.86521,7.86417,1.00025
1.47,1.82864,1.00077,6.84646,5.84703,7.84593,1.00022
1.48,1.83507,1.00078,6.82814,5.82869,7.82763,1.00025
1.49,1.84029,1.00087,6.80977,5.81036,7.80916,1.00027
1.5,1.84549,1.00086,6.79134,5.79193,7.79082,1.00031
1.51,1.85103,1.00082,6.77285,5.7734,7.77231,1.00028
1.52,1.85702,1.00081,6.75431,5.75487,7.75373,1.00024
1.53,1.86314,1.0008,6.73571,5.73631,7.73518,1.00023
1.54,1.86841,1.00082,6.71705,5.71764,7.71655,1.00027
1.55,1.87327,1.00084,6.69835,5.6989,7.69783,1.00031
1.56,1.87829,1.00087,6.67959,5.68019,7.67905,1.0003
1.57,1.88384,1.0009,6.66077,5.66143,7.66017,1.00027
1.58,1.88979,1.00085,6.64191,5.64253,7.64132,1.00024
1.59,1.89493,1.00079,6.62298,5.62356,7.62251,1.00026
1.6,1.89982,1.00079,6.60401,5.60456,7.60356,1.00029
1.61,1.90464,1.00089,6.58499,5.58555,7.5844,1.00031
1.62,1.91001,1.001,6.56591,5.56666,7.56523,1.00028
1.63,1.91573,1.00093,6.54678,5.54747,7.54616,1.00027
1.64,1.92078,1.00078,6.5276,5.52817,7.52714,1.00027
1.65,1.92555,1.00071,6.50837,5.50886,7.50802,1.00029
1.66,1.93068,1.00094,6.48909,5.48972,7.48842,1.00028
1.67,1.9361,1.00108,6.46975,5.47057,7.46901,1.00029
1.68,1.94083,1.00095,6.45037,5.45107,7.44977,1.0003
1.69,1.94593,1.00072,6.43094,5.43141,7.43059,1.00031
1.7,1.95115,1.00081,6.41145,5.41197,7.41089,1.00027
1.71,1.95675,1.00099,6.39191,5.39269,7.39121,1.00025
1.72,1.9617,1.001,6.37232,5.37305,7.37164,1.0003
1.73,1.96627,1.00083,6.35268,5.35324,7.3523,1.00036
1.74,1.9711,1.0009,6.33299,5.33354,7.33239,1.00032
1.75,1.97671,1.00102,6.31325,5.31406,7.31251,1.00025
1.76,1.98106,1.00092,6.29347,5.29418,7.29286,1.00026
1.77,1.98499,1.00073,6.27364,5.27412,7.27333,1.00034
1.78,1.98957,1.00095,6.25376,5.25431,7.25311,1.00034
1.79,1.9945,1.00119,6.23384,5.23483,7.23299,1.00027
1.8,1.9979,1.00098,6.21388,5.21462,7.21324,1.00029
1.81,2.00166,1.0007,6.19388,5.19431,7.19361,1.00035
1.82,2.00611,1.00089,6.17384,5.17439,7.17321,1.0003
1.83,2.00957,1.00117,6.15376,5.15477,7.1529,1.00023
1.84,2.01198,1.00092,6.13366,5.13431,7.13313,1.00033
1.85,2.01528,1.00081,6.11352,5.11395,7.11312,1.0004
1.86,2.01905,1.00104,6.09335,5.0941,7.09258,1.00028
1.87,2.02088,1.00107,6.07315,5.07408,7.07237,1.00022
1.88,2.02329,1.00076,6.05292,5.05341,7.05259,1.00035
1.89,2.02682,1.00089,6.03268,5.03318,7.03213,1.00037
1.9,2.02872,1.00119,6.0124,5.01337,7.01153,1.00027
1.91,2.03035,1.00103,5.9921,4.9929,6.99143,1.00029
1.92,2.03327,1.00079,5.97178,4.97221,6.97137,1.00037
1.93,2.0358,1.00094,5.95144,4.95209,6.9508,1.00029
1.94,2.03731,1.00103,5.93107,4.93189,6.93032,1.00024
1.95,2.04015,1.00094,5.91068,4.91131,6.91013,1.00035
1.96,2.04324,1.00098,5.89027,4.89089,6.88967,1.00037
1.97,2.04536,1.00105,5.86983,4.87063,6.86911,1.00029
1.98,2.04822,1.00095,5.84936,4.85006,6.84875,1.00029
1.99,2.052,1.00091,5.82886,4.82945,6.8283,1.00033
2,2.05451,1.00099,5.80832,4.80905,6.80768,1.00031
2.01,2.05718,1.00103,5.78776,4.78852,6.78711,1.00033
2.02,2.06097,1.00104,5.76717,4.76788,6.7665,1.00035
2.03,2.06382,1.00102,5.74655,4.74732,6.7459,1.00031
2.04,2.0664,1.00092,5.7259,4.72657,6.72534,1.0003
2.05,2.06986,1.00093,5.70522,4.70582,6.70462,1.00033
2.06,2.07251,1.00106,5.68451,4.68531,6.6838,1.00031
2.07,2.0747,1.00102,5.66377,4.66452,6.66314,1.00033
2.08,2.07804,1.001,5.64301,4.64364,6.64238,1.00037
2.09,2.08087,1.00103,5.62221,4.62298,6.62154,1.00031
2.1,2.08291,1.00096,5.60139,4.60213,6.60077,1.00029
2.11,2.08613,1.00094,5.58055,4.58115,6.57997,1.00035
2.12,2.08858,1.00105,5.55967,4.56043,6.559,1.00033
2.13,2.09061,1.00107,5.53878,4.53957,6.53809,1.00032
2.14,2.094,1.00102,5.51785,4.51854,6.51721,1.00036
2.15,2.09668,1.00101,5.4969,4.49764,6.49627,1.00032
2.16,2.09899,1.00097,5.47592,4.47663,6.47531,1.00031
2.17,2.10221,1.001,5.45492,4.45559,6.45429,1.00035
2.18,2.10468,1.00108,5.43388,4.43469,6.43319,1.00033
2.19,2.10696,1.00106,5.41282,4.41358,6.41216,1.00035
2.2,2.11039,1.00103,5.39174,4.39244,6.3911,1.00036
2.21,2.11254,1.00103,5.37062,4.3714,6.36997,1.00031
2.22,2.11487,1.001,5.34948,4.35019,6.34885,1.00033
2.23,2.11791,1.00104,5.32832,4.32902,6.32766,1.00036
2.24,2.11975,1.00109,5.30713,4.30795,6.30643,1.00033
2.25,2.1223,1.00106,5.28592,4.28666,6.28525,1.00036
2.26,2.12546,1.00107,5.26468,4.26544,6.26401,1.00036
2.27,2.12735,1.00102,5.24342,4.24418,6.24276,1.00031
2.28,2.13008,1.001,5.22213,4.2228,6.2215,1.00035
2.29,2.13271,1.00109,5.20082,4.20162,6.20014,1.00035
2.3,2.13452,1.00109,5.17948,4.18029,6.17879,1.00034
2.31,2.13767,1.00106,5.15812,4.15882,6.15745,1.00037
2.32,2.14,1.00106,5.13673,4.13753,6.13608,1.00033
2.33,2.14224,1.00104,5.11532,4.11607,6.11465,1.00033
2.34,2.14519,1.00106,5.09388,4.0946,6.0932,1.00036
2.35,2.14707,1.00109,5.07242,4.07323,6.07173,1.00034
2.36,2.14964,1.00108,5.05094,4.05168,6.05026,1.00037
2.37,2.15254,1.00111,5.02943,4.03024,6.02874,1.00036
2.38,2.15432,1.00105,5.00789,4.00868,6.00723,1.00032
2.39,2.1572,1.00103,4.98633,3.98702,5.98568,1.00036
2.4,2.15922,1.00109,4.96475,3.96557,5.96409,1.00034
2.41,2.16127,1.00113,4.94315,3.94395,5.94242,1.00036
2.42,2.16402,1.00112,4.92152,3.92229,5.9208,1.00038
2.43,2.16581,1.00107,4.89987,3.90067,5.89919,1.00033
2.44,2.16847,1.00104,4.8782,3.87891,5.87755,1.00036
2.45,2.17081,1.00111,4.85651,3.85733,5.85583,1.00035
2.46,2.1727,1.00112,4.83479,3.83559,5.83407,1.00035
2.47,2.1754,1.0011,4.81305,3.8138,5.81236,1.00038
2.48,2.17725,1.0011,4.79129,3.79211,5.79061,1.00034
2.49,2.17951,1.00109,4.7695,3.77026,5.76881,1.00037
2.5,2.18187,1.00112,4.7477,3.74851,5.747,1.00036
2.51,2.18358,1.00109,4.72587,3.72667,5.72518,1.00034
2.52,2.18599,1.00108,4.70402,3.70475,5.70335,1.00038
2.53,2.18753,1.00112,4.68215,3.683,5.68147,1.00035
2.54,2.18977,1.00113,4.66027,3.66105,5.65954,1.00038
2.55,2.19208,1.00114,4.63836,3.63919,5.63765,1.00037
2.56,2.19374,1.00109,4.61643,3.61723,5.61575,1.00034
2.57,2.19628,1.00107,4.59448,3.59521,5.59382,1.00038
2.58,2.19774,1.00113,4.57251,3.57337,5.57182,1.00035
2.59,2.19985,1.00116,4.55052,3.55132,5.54977,1.00039
2.6,2.20218,1.00116,4.52851,3.52937,5.5278,1.00037
2.61,2.2039,1.0011,4.50648,3.50728,5.50579,1.00035
2.62,2.20645,1.00108,4.48443,3.48517,5.48375,1.00038
2.63,2.20785,1.00112,4.46236,3.46321,5.46166,1.00035
2.64,2.21024,1.00116,4.44027,3.44105,5.43952,1.00039
2.65,2.21199,1.00118,4.41816,3.41905,5.41745,1.00037
2.66,2.21372,1.00114,4.39603,3.39683,5.39529,1.00037
2.67,2.21613,1.00112,4.37388,3.37466,5.37317,1.00037
2.68,2.21739,1.00109,4.35171,3.35253,5.35105,1.00034
2.69,2.21975,1.00113,4.32952,3.33029,5.3288,1.00039
2.7,2.22099,1.00118,4.30732,3.30823,5.30661,1.00037
2.71,2.22225,1.00117,4.2851,3.28588,5.28434,1.00039
2.72,2.22419,1.00115,4.26287,3.26372,5.26217,1.00038
2.73,2.22547,1.00112,4.24062,3.24144,5.23992,1.00036
2.74,2.2276,1.00113,4.21836,3.21913,5.21764,1.00038
2.75,2.22849,1.00113,4.19608,3.19694,5.19539,1.00036
2.76,2.23069,1.00117,4.17378,3.17455,5.17302,1.0004
2.77,2.23176,1.00118,4.15147,3.1524,5.15078,1.00037
2.78,2.23346,1.00117,4.12914,3.12993,5.12837,1.00039
2.79,2.23526,1.00115,4.1068,3.10764,5.1061,1.00038
2.8,2.2363,1.00114,4.08444,3.08527,5.08373,1.00037
2.81,2.23819,1.00116,4.06207,3.06287,5.06133,1.00039
2.82,2.23888,1.00115,4.03968,3.04056,5.03899,1.00037
2.83,2.24102,1.00117,4.01728,3.01805,5.01651,1.0004
2.84,2.24207,1.00117,3.99487,2.99579,4.9942,1.00037
2.85,2.24336,1.00116,3.97244,2.97321,4.97167,1.00039
2.86,2.2447,1.00117,3.95,2.95088,4.9493,1.00038
2.87,2.2455,1.00119,3.92755,2.92839,4.92679,1.00038
2.88,2.24722,1.00119,3.90508,2.90593,4.90434,1.0004
2.89,2.24775,1.00114,3.88261,2.88346,4.88191,1.00036
2.9,2.24963,1.00114,3.86012,2.86088,4.85939,1.0004
2.91,2.25007,1.00116,3.83762,2.83855,4.83695,1.00036
2.92,2.25148,1.00118,3.81512,2.81587,4.81432,1.0004
2.93,2.2524,1.00121,3.7926,2.79355,4.7919,1.00038
2.94,2.2537,1.00121,3.77007,2.77088,4.76926,1.0004
2.95,2.25506,1.00119,3.74752,2.7484,4.74681,1.00039
2.96,2.25564,1.00116,3.72497,2.72581,4.72424,1.00038
2.97,2.25708,1.00117,3.70241,2.70321,4.70167,1.00039
2.98,2.25744,1.00115,3.67983,2.68071,4.67915,1.00037
2.99,2.25917,1.00118,3.65725,2.65802,4.65647,1.00041
3,2.25943,1.00119,3.63466,2.6356,4.63398,1.00038
3.01,2.26079,1.00119,3.61206,2.61281,4.61124,1.0004
3.02,2.26149,1.00119,3.58944,2.5904,4.58877,1.00038
3.03,2.26217,1.0012,3.56683,2.56763,4.56602,1.0004
3.04,2.26321,1.0012,3.5442,2.54509,4.54349,1.0004
3.05,2.26383,1.00121,3.52157,2.52243,4.52079,1.00039
3.06,2.2653,1.0012,3.49892,2.49977,4.49816,1.0004
3.07,2.26573,1.00115,3.47626,2.47713,4.47558,1.00037
3.08,2.26711,1.00116,3.4536,2.45436,4.45285,1.0004
3.09,2.26711,1.0012,3.43093,2.43188,4.43023,1.00037
3.1,2.26843,1.00121,3.40825,2.40901,4.40742,1.00041
3.11,2.26885,1.00122,3.38556,2.38656,4.38488,1.00039
3.12,2.2696,1.00121,3.36287,2.36365,4.36204,1.00041
3.13,2.26993,1.00119,3.34017,2.34111,4.3395,1.00039
3.14,2.27058,1.00121,3.31747,2.3183,4.31667,1.00039
3.15,2.27133,1.00121,3.29476,2.29565,4.29403,1.0004
3.16,2.27171,1.00121,3.27205,2.27294,4.27129,1.00039
3.17,2.27288,1.0012,3.24932,2.25013,4.24855,1.00041
3.18,2.27285,1.00116,3.22659,2.2275,4.22593,1.00037
3.19,2.2741,1.00117,3.20386,2.20462,4.20308,1.0004
3.2,2.27391,1.0012,3.18112,2.18209,4.18044,1.00038
3.21,2.27505,1.00122,3.15837,2.15913,4.15752,1.00041
3.22,2.27514,1.00124,3.13562,2.13664,4.13494,1.00039
3.23,2.27572,1.00123,3.11287,2.11365,4.11202,1.00041
3.24,2.27604,1.0012,3.09011,2.09106,4.08944,1.00039
3.25,2.27631,1.00122,3.06735,2.06818,4.06654,1.0004
3.26,2.27693,1.00121,3.04458,2.04548,4.04386,1.0004
3.27,2.27698,1.00123,3.02181,2.02271,4.02104,1.00039
3.28,2.27766,1.00122,2.99904,1.99988,3.99826,1.00041
3.29,2.27705,1.00119,2.97627,1.97718,3.97557,1.00038
3.3,2.27755,1.00118,2.9535,1.95426,3.95271,1.00041
3.31,2.27709,1.00121,2.93072,1.93171,3.93004,1.00037
3.32,2.27793,1.00121,2.90795,1.90869,3.9071,1.00041
3.33,2.27769,1.00124,2.88517,1.8862,3.8845,1.00039
3.34,2.278,1.00124,2.86239,1.86317,3.86152,1.00042
3.35,2.27803,1.00123,2.83961,1.84061,3.83894,1.00039
3.36,2.2781,1.00123,2.81683,1.81764,3.81599,1.00041
3.37,2.27828,1.00121,2.79405,1.79497,3.79336,1.0004
3.38,2.27816,1.00123,2.77127,1.77214,3.77047,1.0004
3.39,2.27862,1.00124,2.74848,1.74938,3.74771,1.00041
3.4,2.27816,1.00122,2.7257,1.72661,3.72496,1.00039
3.41,2.27856,1.00119,2.70292,1.7037,3.70214,1.00041
3.42,2.27779,1.0012,2.68013,1.68111,3.67947,1.00038
3.43,2.27844,1.00121,2.65735,1.65811,3.65652,1.00041
3.44,2.27755,1.00123,2.63457,1.63559,3.6339,1.00039
3.45,2.27771,1.00125,2.6118,1.61257,3.61092,1.00042
3.46,2.27713,1.00125,2.58902,1.59005,3.58834,1.0004
3.47,2.27686,1.00124,2.56625,1.56705,3.56539,1.00041
3.48,2.27669,1.00122,2.54348,1.54445,3.54281,1.0004
3.49,2.27607,1.00125,2.52072,1.52157,3.51989,1.00041
3.5,2.27612,1.00125,2.49796,1.49889,3.49721,1.00041
3.51,2.2753,1.00124,2.4752,1.47612,3.47443,1.0004
3.52,2.275,1.00122,2.45245,1.45328,3.45167,1.00042
3.53,2.27378,1.0012,2.42971,1.43065,3.42902,1.00038
3.54,2.27386,1.00122,2.40697,1.40776,3.40617,1.00042
3.55,2.27236,1.00125,2.38424,1.38525,3.38354,1.00039
3.56,2.27206,1.00125,2.36151,1.3623,3.36065,1.00043
3.57,2.27087,1.00127,2.3388,1.33986,3.33811,1.0004
3.58,2.27014,1.00126,2.31609,1.3169,3.31523,1.00042
3.59,2.26921,1.00124,2.2934,1.29438,3.29271,1.0004
3.6,2.26811,1.00126,2.27071,1.27157,3.26988,1.00041
3.61,2.26731,1.00126,2.24803,1.24898,3.24728,1.00041
3.62,2.26576,1.00126,2.22537,1.22629,3.22458,1.0004
3.63,2.26506,1.00123,2.20271,1.20356,3.20194,1.00042
3.64,2.26288,1.00123,2.18007,1.18104,3.17937,1.00039
3.65,2.26239,1.00124,2.15745,1.15827,3.15664,1.00042
3.66,2.26025,1.00125,2.13484,1.13586,3.13414,1.0004
3.67,2.25892,1.00127,2.11224,1.11306,3.11138,1.00043
3.68,2.25711,1.00129,2.08966,1.0907,3.08894,1.00041
3.69,2.25516,1.00129,2.0671,1.06798,3.06625,1.00042
3.7,2.2536,1.00127,2.04455,1.04552,3.04382,1.00042
3.71,2.25118,1.00126,2.02203,1.02295,3.02124,1.0004
3.72,2.24969,1.00126,1.99952,1.00042,2.99876,1.00042
3.73,2.24684,1.00125,1.97704,0.978017,2.97631,1.0004
3.74,2.24492,1.00128,1.95458,0.95545,2.95377,1.00044
3.75,2.24181,1.0013,1.93215,0.933195,2.93142,1.00041
3.76,2.23945,1.00129,1.90974,0.910619,2.9089,1.00043
3.77,2.23658,1.0013,1.88736,0.888377,2.88662,1.00042
3.78,2.23342,1.00129,1.86501,0.865941,2.8642,1.00042
3.79,2.23071,1.0013,1.84269,0.84366,2.84191,1.00043
3.8,2.22682,1.00127,1.8204,0.821373,2.81963,1.0004
