time,velocity,ratio,centerX,Xmax,Xmin,Ymax
0,0,1,21,20,22,1
0.01,0.0197484,0.999988,20.9999,19.9999,21.9999,1.00001
0.02,0.0392747,0.999999,20.9996,19.9996,21.9996,1.00001
0.03,0.0586101,1.00001,20.9992,19.9991,21.9992,1.00002
0.04,0.0777254,1.00003,20.9985,19.9985,21.9985,1.00002
0.05,0.0966612,1.00005,20.9977,19.9976,21.9976,1.00002
0.06,0.115405,1.00007,20.9966,19.9966,21.9965,1.00003
0.07,0.133956,1.0001,20.9954,19.9954,21.9952,1.00002
0.08,0.15231,1.00012,20.994,19.994,21.9938,1.00002
0.09,0.170494,1.00015,20.9924,19.9924,21.9921,1.00001
0.1,0.188502,1.0002,20.9907,19.9907,21.9903,1.00003
0.11,0.206331,1.00027,20.9887,19.9887,21.9883,1.00005
0.12,0.223973,1.00034,20.9866,19.9866,21.9861,1.00007
0.13,0.241459,1.00041,20.9843,19.9844,21.9838,1.0001
0.14,0.258751,1.00047,20.9818,19.982,21.9813,1.00011
0.15,0.275923,1.00053,20.9792,19.9794,21.9786,1.00013
0.16,0.293003,1.00061,20.9764,19.9767,21.9757,1.00015
0.17,0.309869,1.00073,20.9734,19.9738,21.9727,1.0002
0.18,0.326499,1.00089,20.9702,19.9707,21.9695,1.00027
0.19,0.342983,1.00107,20.9669,19.9675,21.9661,1.00033
0.2,0.359291,1.00128,20.9634,19.9642,21.9624,1.0004
0.21,0.375416,1.0015,20.9598,19.9607,21.9586,1.00046
0.22,0.39136,1.00181,20.956,19.9571,21.9546,1.00057
0.23,0.40712,1.00216,20.952,19.9534,21.9504,1.00069
0.24,0.422752,1.00254,20.9479,19.9495,21.946,1.00081
0.25,0.43817,1.00294,20.9436,19.9455,21.9415,1.00092
0.26,0.453477,1.00344,20.9392,19.9413,21.9367,1.0011
0.27,0.46852,1.00395,20.9346,19.937,21.9317,1.00127
0.28,0.483432,1.00451,20.9299,19.9326,21.9265,1.00144
0.29,0.498113,1.00516,20.925,19.9281,21.9211,1.00165
0.3,0.512637,1.00589,20.9199,19.9235,21.9155,1.00188
0.31,0.526983,1.00666,20.9148,19.9187,21.9097,1.00211
0.32,0.541069,1.00752,20.9095,19.9139,21.9037,1.00238
0.33,0.555023,1.00845,20.904,19.9089,21.8975,1.00269
0.34,0.568732,1.00944,20.8984,19.9039,21.8911,1.00298
0.35,0.582264,1.01054,20.8927,19.8988,21.8845,1.00334
0.36,0.59565,1.01172,20.8868,19.8936,21.8777,1.0037
0.37,0.60876,1.01297,20.8808,19.8883,21.8707,1.00407
0.38,0.621657,1.01434,20.8747,19.8828,21.8635,1.00451
0.39,0.634324,1.01576,20.8684,19.8773,21.856,1.00494
0.4,0.646717,1.01727,20.862,19.8717,21.8483,1.00541
0.41,0.659152,1.01888,20.8555,19.8659,21.8405,1.00592
0.42,0.671076,1.02058,20.8489,19.8602,21.8324,1.00642
0.43,0.682807,1.02244,20.8421,19.8543,21.8241,1.00699
0.44,0.694309,1.02439,20.8353,19.8484,21.8155,1.00756
0.45,0.705575,1.02644,20.8283,19.8424,21.8068,1.00815
0.46,0.716588,1.02864,20.8212,19.8364,21.7978,1.00879
0.47,0.727355,1.03091,20.814,19.8303,21.7886,1.00942
0.48,0.737907,1.03338,20.8067,19.8241,21.7791,1.01012
0.49,0.748155,1.03589,20.7993,19.8178,21.7694,1.01082
0.5,0.75815,1.03856,20.7918,19.8115,21.7595,1.01156
0.51,0.767865,1.04133,20.7842,19.805,21.7493,1.01232
0.52,0.777145,1.04424,20.7765,19.7986,21.7389,1.01309
0.53,0.786303,1.04734,20.7687,19.7921,21.7282,1.01392
0.54,0.795213,1.05055,20.7608,19.7855,21.7173,1.01473
0.55,0.803857,1.05396,20.7528,19.7789,21.7062,1.01564
0.56,0.812234,1.05744,20.7447,19.7722,21.6948,1.01648
0.57,0.820337,1.06113,20.7366,19.7655,21.6831,1.01741
0.58,0.828123,1.06498,20.7283,19.7588,21.6712,1.01834
0.59,0.835632,1.06897,20.72,19.752,21.6591,1.01932
0.6,0.842846,1.07312,20.7117,19.7451,21.6467,1.02031
0.61,0.849805,1.07744,20.7032,19.7382,21.634,1.02135
0.62,0.856472,1.08197,20.6947,19.7312,21.6211,1.0224
0.63,0.862932,1.08664,20.6861,19.7243,21.608,1.02348
0.64,0.868876,1.09153,20.6775,19.7173,21.5946,1.02459
0.65,0.874741,1.09655,20.6688,19.7102,21.581,1.0257
0.66,0.880363,1.10182,20.66,19.7032,21.5671,1.02686
0.67,0.885704,1.1072,20.6512,19.6961,21.553,1.028
0.68,0.890807,1.11284,20.6423,19.6889,21.5386,1.0292
0.69,0.895728,1.11856,20.6334,19.6817,21.524,1.03037
0.7,0.900275,1.12457,20.6244,19.6745,21.5092,1.03161
0.71,0.904587,1.13068,20.6154,19.6672,21.4941,1.0328
0.72,0.908631,1.13709,20.6064,19.66,21.4788,1.03408
0.73,0.912417,1.1436,20.5973,19.6527,21.4633,1.03532
0.74,0.915946,1.15043,20.5881,19.6454,21.4475,1.03663
0.75,0.919276,1.15736,20.579,19.6381,21.4316,1.03791
0.76,0.922375,1.16459,20.5698,19.6307,21.4155,1.03926
0.77,0.925312,1.17189,20.5605,19.6233,21.3992,1.04057
0.78,0.927969,1.17946,20.5513,19.6158,21.3826,1.04194
0.79,0.930451,1.18718,20.542,19.6083,21.3659,1.04328
0.8,0.932745,1.19518,20.5327,19.6009,21.349,1.04466
0.81,0.934863,1.20312,20.5234,19.5934,21.3323,1.04603
0.82,0.936788,1.21108,20.514,19.5859,21.3156,1.0474
0.83,0.938462,1.21892,20.5047,19.5784,21.2993,1.04878
0.84,0.939933,1.22667,20.4953,19.5709,21.2832,1.05018
0.85,0.94129,1.23421,20.4859,19.5634,21.2675,1.0516
0.86,0.942484,1.24163,20.4765,19.5558,21.252,1.05303
0.87,0.943646,1.2489,20.467,19.5482,21.2368,1.05447
0.88,0.944603,1.2561,20.4576,19.5406,21.2218,1.05592
0.89,0.945404,1.26314,20.4482,19.5329,21.2072,1.05739
0.9,0.946056,1.27008,20.4387,19.5253,21.1927,1.05884
0.91,0.946657,1.27691,20.4293,19.5177,21.1785,1.06032
0.92,0.94703,1.28363,20.4198,19.5101,21.1644,1.06177
0.93,0.947355,1.2902,20.4103,19.5024,21.1506,1.06325
0.94,0.947529,1.29661,20.4009,19.4947,21.137,1.06469
0.95,0.947821,1.30295,20.3914,19.487,21.1236,1.06619
0.96,0.947806,1.30921,20.3819,19.4793,21.1103,1.06764
0.97,0.947756,1.31543,20.3725,19.4716,21.0971,1.06915
0.98,0.94754,1.3215,20.363,19.4639,21.0842,1.0706
0.99,0.947345,1.32753,20.3535,19.4562,21.0714,1.07212
1,0.946991,1.33344,20.3441,19.4485,21.0587,1.07357
1.01,0.946644,1.33929,20.3346,19.4407,21.0462,1.0751
1.02,0.946221,1.34496,20.3252,19.4329,21.0338,1.07655
1.03,0.945811,1.35066,20.3157,19.4251,21.0215,1.07807
1.04,0.945285,1.35615,20.3063,19.4174,21.0094,1.07951
1.05,0.944738,1.36169,20.2968,19.4096,20.9973,1.08101
1.06,0.944154,1.3671,20.2874,19.4018,20.9854,1.08248
1.07,0.943469,1.37251,20.278,19.394,20.9736,1.08399
1.08,0.942615,1.37782,20.2685,19.3863,20.9619,1.08547
1.09,0.942083,1.38309,20.2591,19.3785,20.9503,1.08698
1.1,0.941366,1.3882,20.2497,19.3706,20.9388,1.08846
1.11,0.940534,1.39331,20.2403,19.3627,20.9273,1.08997
1.12,0.939714,1.3983,20.2309,19.3549,20.916,1.09145
1.13,0.93888,1.40333,20.2215,19.3471,20.9047,1.09295
1.14,0.938035,1.4082,20.2122,19.3393,20.8936,1.09442
1.15,0.9372,1.41305,20.2028,19.3314,20.8825,1.09589
1.16,0.936319,1.41789,20.1934,19.3236,20.8715,1.09737
1.17,0.935402,1.42257,20.1841,19.3157,20.8606,1.09885
1.18,0.934501,1.42728,20.1747,19.3078,20.8497,1.10034
1.19,0.933589,1.43185,20.1654,19.2999,20.8389,1.10182
1.2,0.932673,1.43641,20.1561,19.292,20.8282,1.10332
1.21,0.931722,1.44098,20.1468,19.2841,20.8175,1.10478
1.22,0.930758,1.44546,20.1375,19.2762,20.8069,1.10628
1.23,0.929801,1.44986,20.1282,19.2683,20.7964,1.10773
1.24,0.928779,1.45438,20.1189,19.2605,20.7858,1.10922
1.25,0.927812,1.45857,20.1096,19.2526,20.7755,1.11064
1.26,0.9269,1.46283,20.1004,19.2446,20.7651,1.11213
1.27,0.925898,1.46705,20.0911,19.2367,20.7548,1.11356
1.28,0.925081,1.47128,20.0819,19.2288,20.7445,1.11506
1.29,0.924097,1.47532,20.0726,19.2208,20.7344,1.11649
1.3,0.92315,1.47962,20.0634,19.2129,20.7241,1.118
1.31,0.922244,1.48368,20.0542,19.205,20.714,1.11944
1.32,0.921288,1.48774,20.045,19.1971,20.704,1.12094
1.33,0.920328,1.4917,20.0358,19.1891,20.6939,1.12238
1.34,0.919361,1.49576,20.0266,19.1811,20.6838,1.12386
1.35,0.918471,1.49956,20.0174,19.1731,20.674,1.12529
1.36,0.917499,1.50345,20.0082,19.1652,20.6641,1.12675
1.37,0.916656,1.5073,19.9991,19.1572,20.6541,1.12817
1.38,0.915752,1.51121,19.9899,19.1492,20.6442,1.12963
1.39,0.91492,1.51491,19.9808,19.1413,20.6345,1.13106
1.4,0.914062,1.51871,19.9716,19.1333,20.6247,1.13251
1.41,0.913179,1.52241,19.9625,19.1253,20.615,1.13394
1.42,0.912287,1.5261,19.9534,19.1172,20.6052,1.13538
1.43,0.911427,1.52963,19.9443,19.1092,20.5956,1.13681
1.44,0.910602,1.53323,19.9352,19.1012,20.586,1.13824
1.45,0.909828,1.53686,19.9261,19.0932,20.5763,1.13967
1.46,0.909018,1.54046,19.917,19.0852,20.5667,1.14107
1.47,0.90824,1.54392,19.9079,19.0772,20.5572,1.14248
1.48,0.907521,1.54738,19.8988,19.0692,20.5477,1.14387
1.49,0.90682,1.55086,19.8898,19.0611,20.5381,1.1453
1.5,0.906116,1.55434,19.8807,19.0531,20.5286,1.1467
1.51,0.905389,1.55771,19.8717,19.045,20.5192,1.14813
1.52,0.90469,1.56104,19.8626,19.037,20.5097,1.14951
1.53,0.904016,1.56444,19.8536,19.0289,20.5003,1.15095
1.54,0.903268,1.56782,19.8446,19.0209,20.4909,1.15232
1.55,0.902589,1.57126,19.8356,19.0129,20.4815,1.15375
1.56,0.90192,1.57443,19.8265,19.0048,20.4722,1.15511
1.57,0.901377,1.57763,19.8175,18.9967,20.4629,1.15653
1.58,0.90069,1.58078,19.8085,18.9886,20.4535,1.15786
1.59,0.900047,1.58409,19.7995,18.9805,20.4442,1.15928
1.6,0.899387,1.58727,19.7906,18.9725,20.4349,1.16062
1.61,0.898725,1.59045,19.7816,18.9644,20.4257,1.16205
1.62,0.898104,1.59356,19.7726,18.9564,20.4165,1.1634
1.63,0.897575,1.59681,19.7636,18.9483,20.4072,1.16482
1.64,0.896994,1.59994,19.7547,18.9402,20.398,1.16617
1.65,0.896433,1.60301,19.7457,18.9321,20.3888,1.16758
1.66,0.895905,1.60597,19.7368,18.924,20.3797,1.16893
1.67,0.895395,1.60904,19.7278,18.9159,20.3706,1.17033
1.68,0.894895,1.61209,19.7189,18.9078,20.3614,1.17167
1.69,0.894365,1.61518,19.7099,18.8997,20.3522,1.17304
1.7,0.89396,1.61819,19.701,18.8916,20.3431,1.17437
1.71,0.89343,1.62112,19.6921,18.8835,20.3341,1.17575
1.72,0.892974,1.62403,19.6832,18.8754,20.325,1.17709
1.73,0.892545,1.62695,19.6742,18.8672,20.3159,1.17848
1.74,0.892235,1.62991,19.6653,18.8591,20.3068,1.17982
1.75,0.891819,1.6329,19.6564,18.8509,20.2977,1.18121
1.76,0.891379,1.63573,19.6475,18.8428,20.2887,1.18255
1.77,0.891001,1.6386,19.6386,18.8347,20.2797,1.18393
1.78,0.890638,1.6415,19.6297,18.8266,20.2707,1.18527
1.79,0.890311,1.64442,19.6208,18.8184,20.2616,1.18663
1.8,0.889963,1.64734,19.6119,18.8103,20.2525,1.18796
1.81,0.889621,1.65003,19.603,18.8021,20.2436,1.18929
1.82,0.889303,1.65277,19.5941,18.7939,20.2347,1.19062
1.83,0.888986,1.65553,19.5853,18.7857,20.2257,1.19195
1.84,0.88872,1.65838,19.5764,18.7776,20.2167,1.19329
1.85,0.888468,1.66119,19.5675,18.7694,20.2077,1.19462
1.86,0.888161,1.66411,19.5586,18.7613,20.1987,1.19596
1.87,0.887991,1.66677,19.5498,18.7531,20.1898,1.19728
1.88,0.88778,1.66941,19.5409,18.7449,20.1809,1.19862
1.89,0.887537,1.67198,19.532,18.7367,20.172,1.19993
1.9,0.887276,1.6748,19.5232,18.7285,20.163,1.20126
1.91,0.887055,1.67755,19.5143,18.7203,20.154,1.20256
1.92,0.88689,1.68032,19.5054,18.7121,20.145,1.20388
1.93,0.886753,1.68286,19.4966,18.7039,20.1362,1.20515
1.94,0.886625,1.68558,19.4877,18.6957,20.1273,1.20648
1.95,0.886486,1.68817,19.4789,18.6875,20.1184,1.20776
1.96,0.886434,1.69085,19.47,18.6793,20.1094,1.20909
1.97,0.886292,1.69355,19.4612,18.6711,20.1005,1.21037
1.98,0.886175,1.69628,19.4523,18.6629,20.0915,1.21171
1.99,0.886009,1.69877,19.4435,18.6547,20.0827,1.21298
2,0.885977,1.70143,19.4346,18.6465,20.0739,1.21431
2.01,0.885881,1.70403,19.4258,18.6383,20.065,1.21556
2.02,0.885761,1.70675,19.4169,18.6301,20.056,1.21689
2.03,0.885672,1.70936,19.4081,18.6218,20.0471,1.21814
2.04,0.885605,1.71195,19.3992,18.6136,20.0382,1.21945
2.05,0.885581,1.71431,19.3904,18.6053,20.0294,1.22067
2.06,0.885537,1.7169,19.3815,18.5971,20.0206,1.22198
2.07,0.885548,1.71938,19.3727,18.5889,20.0118,1.22322
2.08,0.885589,1.72208,19.3638,18.5807,20.0029,1.22454
2.09,0.885574,1.72464,19.355,18.5725,19.994,1.22577
2.1,0.885707,1.7273,19.3461,18.5642,19.985,1.22709
2.11,0.885763,1.72962,19.3373,18.5559,19.9763,1.22832
2.12,0.885833,1.73215,19.3284,18.5477,19.9674,1.22963
2.13,0.885862,1.73457,19.3196,18.5394,19.9586,1.23086
2.14,0.885904,1.73719,19.3107,18.5311,19.9497,1.23215
2.15,0.885995,1.73971,19.3019,18.5229,19.9408,1.23338
2.16,0.886071,1.74239,19.293,18.5146,19.9318,1.23465
2.17,0.886121,1.74471,19.2842,18.5064,19.9231,1.23585
2.18,0.886201,1.74709,19.2753,18.4981,19.9143,1.23712
2.19,0.886251,1.7494,19.2665,18.4897,19.9054,1.23833
2.2,0.886379,1.75192,19.2576,18.4814,19.8966,1.23961
2.21,0.886509,1.75441,19.2488,18.4731,19.8877,1.24083
2.22,0.886638,1.75707,19.2399,18.4649,19.8787,1.24211
2.23,0.886759,1.75949,19.2311,18.4566,19.8699,1.24332
2.24,0.886948,1.76199,19.2222,18.4483,19.861,1.2446
2.25,0.887084,1.76434,19.2134,18.44,19.8522,1.24581
2.26,0.887236,1.76688,19.2045,18.4317,19.8433,1.24708
2.27,0.887418,1.76929,19.1956,18.4234,19.8345,1.24828
2.28,0.887559,1.77194,19.1868,18.4151,19.8255,1.24953
2.29,0.887786,1.77446,19.1779,18.4068,19.8165,1.25073
2.3,0.888005,1.77683,19.169,18.3985,19.8077,1.25196
2.31,0.888285,1.77922,19.1602,18.3903,19.7989,1.25314
2.32,0.888461,1.78168,19.1513,18.382,19.7901,1.25438
2.33,0.888644,1.7841,19.1424,18.3736,19.7811,1.25556
2.34,0.888854,1.78656,19.1335,18.3653,19.7722,1.2568
2.35,0.889056,1.78909,19.1247,18.3569,19.7632,1.25799
2.36,0.889297,1.79162,19.1158,18.3486,19.7543,1.25922
2.37,0.889518,1.79391,19.1069,18.3403,19.7455,1.2604
2.38,0.889737,1.79639,19.098,18.332,19.7366,1.26161
2.39,0.889847,1.79876,19.0891,18.3237,19.7277,1.26279
2.4,0.890083,1.8012,19.0802,18.3153,19.7188,1.264
2.41,0.890375,1.80365,19.0713,18.3069,19.7098,1.26517
2.42,0.890684,1.80625,19.0624,18.2986,19.7008,1.26636
2.43,0.890952,1.80852,19.0535,18.2902,19.6919,1.2675
2.44,0.891253,1.81086,19.0446,18.2819,19.6831,1.26869
2.45,0.891517,1.81327,19.0357,18.2735,19.6741,1.26984
2.46,0.891774,1.81575,19.0268,18.2652,19.6652,1.27104
2.47,0.892047,1.81813,19.0179,18.2568,19.6563,1.27219
2.48,0.892329,1.82077,19.009,18.2485,19.6472,1.27338
2.49,0.892659,1.82324,19.0001,18.24,19.6381,1.27453
2.5,0.892915,1.82562,18.9912,18.2317,19.6292,1.27572
2.51,0.89318,1.8279,18.9822,18.2233,19.6204,1.27686
2.52,0.893412,1.83043,18.9733,18.2149,19.6114,1.27804
2.53,0.893648,1.83282,18.9644,18.2066,19.6024,1.27917
2.54,0.893918,1.83547,18.9555,18.1982,19.5933,1.28034
2.55,0.894256,1.8379,18.9465,18.1898,19.5843,1.28145
2.56,0.894576,1.84048,18.9376,18.1814,19.5752,1.2826
2.57,0.894915,1.84277,18.9287,18.173,19.5663,1.2837
2.58,0.895063,1.84518,18.9197,18.1647,19.5573,1.28485
2.59,0.89542,1.84761,18.9108,18.1563,19.5483,1.28596
2.6,0.8957,1.85015,18.9018,18.1479,19.5393,1.28712
2.61,0.895993,1.85271,18.8929,18.1396,19.5302,1.28822
2.62,0.89642,1.85542,18.8839,18.1312,19.521,1.28938
2.63,0.896733,1.85793,18.875,18.1228,19.5119,1.29047
2.64,0.897025,1.86031,18.866,18.1143,19.5029,1.29162
2.65,0.897273,1.86262,18.8571,18.1059,19.4939,1.2927
2.66,0.89755,1.86516,18.8481,18.0975,19.4849,1.29385
2.67,0.897813,1.86763,18.8391,18.0891,19.4758,1.29492
2.68,0.898256,1.87033,18.8302,18.0807,19.4666,1.29605
2.69,0.898575,1.87289,18.8212,18.0723,19.4574,1.2971
2.7,0.898801,1.87569,18.8122,18.0639,19.4482,1.29821
2.71,0.899131,1.87792,18.8032,18.0554,19.4392,1.29925
2.72,0.899495,1.88051,18.7942,18.047,19.43,1.30037
2.73,0.899789,1.88292,18.7853,18.0386,19.4209,1.30142
2.74,0.900038,1.88565,18.7763,18.0302,19.4117,1.30254
2.75,0.900309,1.88819,18.7673,18.0218,19.4026,1.30359
2.76,0.900579,1.89109,18.7583,18.0134,19.3932,1.3047
2.77,0.90082,1.89372,18.7493,18.0049,19.384,1.30575
2.78,0.901121,1.89632,18.7403,17.9965,19.3748,1.30685
2.79,0.901377,1.89871,18.7313,17.988,19.3657,1.3079
2.8,0.901609,1.90134,18.7223,17.9796,19.3565,1.30898
2.81,0.901793,1.90399,18.7133,17.9711,19.3472,1.31002
2.82,0.902053,1.90672,18.7043,17.9627,19.338,1.31109
2.83,0.90231,1.90952,18.6952,17.9543,19.3286,1.31212
2.84,0.902572,1.91236,18.6862,17.9459,19.3192,1.31316
2.85,0.902789,1.91503,18.6772,17.9374,19.3099,1.31418
2.86,0.903063,1.91759,18.6682,17.929,19.3007,1.31521
2.87,0.903264,1.92015,18.6592,17.9205,19.2915,1.31623
2.88,0.903396,1.92289,18.6501,17.9121,19.2822,1.31726
2.89,0.903729,1.92561,18.6411,17.9036,19.2728,1.31828
2.9,0.903934,1.92852,18.6321,17.8952,19.2634,1.3193
2.91,0.904155,1.93145,18.6231,17.8868,19.254,1.32033
2.92,0.904372,1.93445,18.614,17.8783,19.2444,1.32133
2.93,0.904489,1.93679,18.605,17.8698,19.2353,1.32235
2.94,0.904661,1.93964,18.596,17.8613,19.2259,1.32334
2.95,0.904857,1.9423,18.5869,17.8529,19.2165,1.32435
2.96,0.905084,1.94516,18.5779,17.8444,19.2071,1.32532
2.97,0.905268,1.94798,18.5688,17.836,19.1977,1.32632
2.98,0.905473,1.95103,18.5598,17.8275,19.1881,1.32727
2.99,0.905645,1.95398,18.5507,17.8191,19.1786,1.32827
3,0.905754,1.95684,18.5417,17.8106,19.1691,1.32919
3.01,0.905937,1.95956,18.5326,17.8021,19.1597,1.33018
3.02,0.90609,1.9623,18.5236,17.7936,19.1503,1.33109
3.03,0.906234,1.96497,18.5145,17.7851,19.141,1.33209
3.04,0.906406,1.96815,18.5055,17.7767,19.1312,1.333
3.05,0.90638,1.97115,18.4964,17.7682,19.1217,1.33399
3.06,0.906589,1.97436,18.4874,17.7598,19.112,1.33491
3.07,0.906734,1.97741,18.4783,17.7513,19.1024,1.33588
3.08,0.906834,1.98035,18.4693,17.7427,19.0928,1.3368
3.09,0.906971,1.98317,18.4602,17.7342,19.0833,1.33776
3.1,0.907162,1.98599,18.4511,17.7257,19.0738,1.33866
3.11,0.907288,1.989,18.4421,17.7172,19.0643,1.3396
3.12,0.907355,1.99213,18.433,17.7088,19.0546,1.3405
3.13,0.907416,1.99513,18.424,17.7003,19.045,1.34141
3.14,0.907537,1.99846,18.4149,17.6918,19.0352,1.34231
3.15,0.907561,2.00146,18.4058,17.6833,19.0255,1.34319
3.16,0.907681,2.00455,18.3968,17.6748,19.0158,1.34408
3.17,0.907741,2.00762,18.3877,17.6663,19.0061,1.34494
3.18,0.907702,2.0106,18.3786,17.6578,18.9965,1.34582
3.19,0.90775,2.01363,18.3695,17.6493,18.9869,1.34665
3.2,0.907728,2.01694,18.3605,17.6409,18.9771,1.34754
3.21,0.90774,2.01996,18.3514,17.6324,18.9674,1.34836
3.22,0.907721,2.02344,18.3423,17.6239,18.9575,1.34927
3.23,0.907792,2.02647,18.3333,17.6153,18.9478,1.35008
3.24,0.907855,2.03004,18.3242,17.6068,18.9378,1.35097
3.25,0.907803,2.03323,18.3151,17.5983,18.928,1.35178
3.26,0.907677,2.03633,18.3061,17.5898,18.9183,1.35264
3.27,0.907696,2.03942,18.297,17.5813,18.9086,1.35345
3.28,0.90761,2.04282,18.2879,17.5728,18.8988,1.35429
3.29,0.907552,2.04585,18.2789,17.5643,18.8891,1.35509
3.3,0.907477,2.04929,18.2698,17.5558,18.8791,1.3559
3.31,0.907317,2.05249,18.2607,17.5473,18.8693,1.3567
3.32,0.907183,2.05607,18.2517,17.5388,18.8592,1.35748
3.33,0.907117,2.05941,18.2426,17.5303,18.8493,1.35827
3.34,0.906922,2.06297,18.2335,17.5218,18.8393,1.35902
3.35,0.906703,2.06587,18.2245,17.5133,18.8297,1.35981
3.36,0.906562,2.06935,18.2154,17.5048,18.8197,1.36052
3.37,0.90637,2.07248,18.2064,17.4962,18.8099,1.36131
3.38,0.906268,2.07575,18.1973,17.4876,18.8,1.36202
3.39,0.906085,2.0791,18.1883,17.4791,18.7901,1.36279
3.4,0.905908,2.08262,18.1792,17.4706,18.78,1.36352
3.41,0.905928,2.0861,18.1702,17.4621,18.7701,1.36426
3.42,0.905766,2.08961,18.1611,17.4536,18.7601,1.365
3.43,0.905641,2.09314,18.1521,17.4451,18.75,1.36571
3.44,0.905439,2.09683,18.143,17.4366,18.7399,1.36645
3.45,0.905232,2.09995,18.134,17.428,18.7301,1.36713
3.46,0.905108,2.10325,18.1249,17.4195,18.7202,1.36787
3.47,0.90495,2.10656,18.1159,17.411,18.7103,1.36852
3.48,0.904764,2.1101,18.1068,17.4025,18.7003,1.36926
3.49,0.904678,2.11343,18.0978,17.394,18.6903,1.36991
3.5,0.904476,2.11707,18.0888,17.3855,18.6803,1.37061
3.51,0.904218,2.1204,18.0797,17.3769,18.6703,1.37126
3.52,0.904017,2.12407,18.0707,17.3684,18.6601,1.37192
3.53,0.903741,2.12742,18.0617,17.3598,18.6502,1.37257
3.54,0.903482,2.13121,18.0526,17.3513,18.6399,1.37319
3.55,0.903174,2.13476,18.0436,17.3428,18.6299,1.37384
3.56,0.902889,2.13844,18.0346,17.3343,18.6197,1.37442
3.57,0.902601,2.14132,18.0256,17.3258,18.6101,1.37509
3.58,0.902378,2.14508,18.0166,17.3172,18.5998,1.37564
3.59,0.90209,2.14843,18.0075,17.3087,18.5899,1.37628
3.6,0.901901,2.15175,17.9985,17.3001,18.5799,1.37685
3.61,0.901658,2.15519,17.9895,17.2916,18.5699,1.37745
3.62,0.901416,2.1588,17.9805,17.2831,18.5598,1.37805
3.63,0.901175,2.16225,17.9715,17.2745,18.5497,1.3786
3.64,0.900928,2.16592,17.9625,17.266,18.5396,1.37922
3.65,0.900745,2.16933,17.9535,17.2575,18.5296,1.37974
3.66,0.900535,2.17315,17.9445,17.249,18.5193,1.38036
3.67,0.900267,2.17642,17.9355,17.2404,18.5093,1.3809
3.68,0.899973,2.18026,17.9265,17.2318,18.4991,1.38148
3.69,0.89969,2.18378,17.9175,17.2233,18.489,1.38203
3.7,0.899348,2.1875,17.9086,17.2147,18.4788,1.38256
3.71,0.899125,2.19049,17.8996,17.2062,18.4691,1.38312
3.72,0.898844,2.19441,17.8906,17.1977,18.4587,1.38361
3.73,0.898486,2.19785,17.8816,17.1891,18.4487,1.38418
3.74,0.898238,2.20104,17.8726,17.1806,18.4387,1.38464
