time,velocity,ratio,centerX,Xmax,Xmin,Ymax
0,0,1,41,40,42,1
0.01,0.0197827,1,40.9999,39.9999,41.9999,1
0.02,0.0393856,0.999992,40.9996,39.9996,41.9996,0.999999
0.03,0.058739,1,40.9991,39.9991,41.9991,0.999997
0.04,0.0778898,1.00001,40.9984,39.9984,41.9984,1
0.05,0.0968139,1.00003,40.9976,39.9976,41.9975,1.00001
0.06,0.115556,1.00005,40.9965,39.9966,41.9965,1.00001
0.07,0.134098,1.00008,40.9953,39.9953,41.9952,1.00001
0.08,0.152472,1.00009,40.9938,39.9939,41.9938,1.00002
0.09,0.170642,1.00011,40.9922,39.9923,41.9921,1.00001
0.1,0.188694,1.00017,40.9904,39.9905,41.9903,1.00004
0.11,0.206743,1.00023,40.9884,39.9886,41.9883,1.00006
0.12,0.224489,1.00029,40.9863,39.9865,41.9861,1.00008
0.13,0.242041,1.00033,40.984,39.9842,41.9838,1.0001
0.14,0.259449,1.00037,40.9815,39.9817,41.9812,1.00012
0.15,0.276643,1.00044,40.9788,39.9791,41.9785,1.00015
0.16,0.293668,1.00055,40.9759,39.9763,41.9756,1.00018
0.17,0.310549,1.00068,40.9729,39.9734,41.9725,1.00022
0.18,0.327299,1.00081,40.9697,39.9703,41.9692,1.00026
0.19,0.343886,1.00092,40.9664,39.967,41.9657,1.00029
0.2,0.360266,1.00099,40.9628,39.9635,41.9622,1.00032
0.21,0.376488,1.00113,40.9592,39.9599,41.9584,1.00037
0.22,0.392613,1.00133,40.9553,39.9562,41.9544,1.00043
0.23,0.408523,1.00153,40.9513,39.9523,41.9502,1.00048
0.24,0.42426,1.00167,40.9472,39.9483,41.946,1.00051
0.25,0.439879,1.0018,40.9428,39.944,41.9416,1.00058
0.26,0.455528,1.00198,40.9384,39.9396,41.937,1.00066
0.27,0.470871,1.00216,40.9337,39.9351,41.9322,1.00071
0.28,0.48589,1.00231,40.929,39.9305,41.9273,1.00074
0.29,0.500969,1.0025,40.924,39.9257,41.9223,1.00083
0.3,0.515911,1.0027,40.9189,39.9207,41.9171,1.0009
0.31,0.530648,1.00285,40.9137,39.9156,41.9117,1.00093
0.32,0.545353,1.00305,40.9083,39.9103,41.9063,1.00102
0.33,0.559885,1.00326,40.9028,39.905,41.9006,1.00107
0.34,0.574226,1.00343,40.8971,39.8994,41.8948,1.00111
0.35,0.588509,1.00359,40.8913,39.8937,41.8889,1.00119
0.36,0.602622,1.00376,40.8854,39.8878,41.8828,1.00124
0.37,0.61671,1.00396,40.8793,39.8819,41.8766,1.00129
0.38,0.630632,1.00414,40.873,39.8758,41.8703,1.00136
0.39,0.644381,1.00429,40.8667,39.8695,41.8638,1.00139
0.4,0.658213,1.00445,40.8601,39.8631,41.8572,1.00148
0.41,0.67182,1.00459,40.8535,39.8566,41.8505,1.00152
0.42,0.685271,1.00477,40.8467,39.8499,41.8435,1.00157
0.43,0.698589,1.00492,40.8398,39.8431,41.8365,1.00163
0.44,0.711811,1.00508,40.8327,39.8361,41.8293,1.00168
0.45,0.724956,1.00524,40.8256,39.829,41.8221,1.00174
0.46,0.737926,1.00541,40.8182,39.8218,41.8146,1.00179
0.47,0.750801,1.00557,40.8108,39.8145,41.8071,1.00185
0.48,0.763504,1.00575,40.8032,39.807,41.7994,1.00189
0.49,0.776157,1.00591,40.7955,39.7995,41.7916,1.00196
0.5,0.78873,1.00606,40.7877,39.7917,41.7837,1.002
0.51,0.801038,1.00626,40.7798,39.7839,41.7756,1.00207
0.52,0.813372,1.00642,40.7717,39.7759,41.7674,1.00212
0.53,0.825616,1.00664,40.7635,39.7679,41.7591,1.0022
0.54,0.837775,1.00681,40.7552,39.7597,41.7506,1.00226
0.55,0.849872,1.00704,40.7467,39.7514,41.742,1.00233
0.56,0.86176,1.00721,40.7382,39.7429,41.7334,1.0024
0.57,0.873626,1.00741,40.7295,39.7344,41.7246,1.00246
0.58,0.885305,1.00763,40.7207,39.7258,41.7156,1.00254
0.59,0.896886,1.00783,40.7118,39.717,41.7066,1.00258
0.6,0.908448,1.00808,40.7028,39.7081,41.6974,1.00267
0.61,0.919803,1.00826,40.6936,39.6991,41.6882,1.00273
0.62,0.931108,1.00852,40.6844,39.69,41.6787,1.00282
0.63,0.942333,1.00873,40.675,39.6808,41.6693,1.0029
0.64,0.953419,1.00893,40.6655,39.6715,41.6596,1.00295
0.65,0.964537,1.00917,40.656,39.662,41.6499,1.00305
0.66,0.975473,1.00936,40.6463,39.6525,41.6401,1.0031
0.67,0.986332,1.0096,40.6365,39.6428,41.6301,1.00319
0.68,0.997173,1.00985,40.6265,39.633,41.62,1.00327
0.69,1.00776,1.01001,40.6165,39.6231,41.6099,1.00332
0.7,1.01836,1.01027,40.6064,39.6132,41.5996,1.00341
0.71,1.02886,1.01046,40.5961,39.6031,41.5893,1.00348
0.72,1.03923,1.01064,40.5858,39.5928,41.5788,1.00352
0.73,1.04957,1.01088,40.5754,39.5825,41.5681,1.00361
0.74,1.05981,1.01104,40.5648,39.5721,41.5575,1.00367
0.75,1.06995,1.01123,40.5542,39.5616,41.5467,1.00371
0.76,1.07997,1.01146,40.5434,39.551,41.5358,1.0038
0.77,1.08999,1.01164,40.5326,39.5403,41.5249,1.00387
0.78,1.09992,1.01183,40.5216,39.5295,41.5138,1.00392
0.79,1.10982,1.01204,40.5106,39.5186,41.5027,1.00399
0.8,1.1197,1.01223,40.4994,39.5075,41.4914,1.00407
0.81,1.1293,1.01239,40.4882,39.4964,41.4801,1.00412
0.82,1.13884,1.01259,40.4768,39.4852,41.4686,1.00416
0.83,1.1484,1.0128,40.4654,39.4739,41.4571,1.00426
0.84,1.15799,1.01299,40.4539,39.4625,41.4454,1.00433
0.85,1.1673,1.01319,40.4423,39.4511,41.4337,1.00437
0.86,1.17656,1.01337,40.4305,39.4395,41.4218,1.00443
0.87,1.18574,1.01359,40.4187,39.4278,41.4099,1.00452
0.88,1.19501,1.01379,40.4068,39.416,41.3979,1.00458
0.89,1.20407,1.01399,40.3948,39.4041,41.3857,1.00464
0.9,1.21317,1.01417,40.3827,39.3922,41.3735,1.00469
0.91,1.22206,1.01439,40.3706,39.3801,41.3612,1.00477
0.92,1.23092,1.01459,40.3583,39.368,41.3488,1.00485
0.93,1.23969,1.01479,40.3459,39.3558,41.3363,1.00492
0.94,1.2483,1.01499,40.3335,39.3435,41.3237,1.00498
0.95,1.25688,1.01519,40.321,39.3311,41.3111,1.00504
0.96,1.2655,1.01541,40.3084,39.3186,41.2983,1.00512
0.97,1.274,1.01559,40.2957,39.306,41.2856,1.00519
0.98,1.28243,1.0158,40.2829,39.2934,41.2726,1.00526
0.99,1.29083,1.01601,40.27,39.2807,41.2596,1.00533
1,1.29925,1.01622,40.2571,39.2679,41.2465,1.00538
1.01,1.30743,1.01643,40.244,39.255,41.2334,1.00545
1.02,1.31562,1.01662,40.2309,39.242,41.2202,1.00553
1.03,1.32364,1.01683,40.2177,39.229,41.2069,1.00561
1.04,1.33162,1.01705,40.2045,39.2158,41.1935,1.00568
1.05,1.33945,1.01727,40.1911,39.2026,41.1799,1.00574
1.06,1.34729,1.01745,40.1777,39.1893,41.1664,1.00579
1.07,1.35511,1.01763,40.1642,39.1759,41.1528,1.00585
1.08,1.36299,1.01782,40.1506,39.1625,41.1391,1.00592
1.09,1.37077,1.01802,40.1369,39.1489,41.1253,1.006
1.1,1.3784,1.01823,40.1232,39.1353,41.1114,1.00607
1.11,1.38584,1.01843,40.1093,39.1217,41.0975,1.00614
1.12,1.39316,1.01864,40.0954,39.1079,41.0835,1.0062
1.13,1.40056,1.01882,40.0815,39.0941,41.0694,1.00626
1.14,1.40794,1.019,40.0674,39.0801,41.0552,1.00632
1.15,1.41523,1.01916,40.0533,39.0661,41.041,1.00637
1.16,1.42253,1.01933,40.0391,39.052,41.0267,1.00642
1.17,1.42977,1.01951,40.0249,39.0379,41.0124,1.00648
1.18,1.43726,1.01968,40.0105,39.0237,40.9979,1.00655
1.19,1.44442,1.01987,39.9961,39.0094,40.9834,1.00662
1.2,1.45138,1.02004,39.9816,38.995,40.9688,1.00668
1.21,1.45834,1.02023,39.9671,38.9806,40.9542,1.00674
1.22,1.46517,1.02041,39.9525,38.9661,40.9394,1.0068
1.23,1.47194,1.02059,39.9378,38.9516,40.9247,1.00686
1.24,1.47869,1.02075,39.923,38.9369,40.9098,1.00691
1.25,1.48541,1.02094,39.9082,38.9222,40.8949,1.00697
1.26,1.49205,1.02112,39.8933,38.9075,40.8799,1.00703
1.27,1.49859,1.0213,39.8784,38.8927,40.8648,1.00709
1.28,1.50507,1.02147,39.8634,38.8778,40.8497,1.00715
1.29,1.51146,1.02165,39.8483,38.8628,40.8345,1.00721
1.3,1.5179,1.02183,39.8331,38.8478,40.8193,1.00727
1.31,1.52443,1.02201,39.8179,38.8327,40.804,1.00732
1.32,1.53085,1.02218,39.8026,38.8176,40.7886,1.00738
1.33,1.53716,1.02236,39.7873,38.8024,40.7732,1.00743
1.34,1.54335,1.02254,39.7719,38.7871,40.7576,1.00749
1.35,1.5496,1.02273,39.7564,38.7717,40.742,1.00755
1.36,1.55567,1.02291,39.7409,38.7563,40.7264,1.00761
1.37,1.56163,1.02308,39.7253,38.7408,40.7107,1.00767
1.38,1.5676,1.02326,39.7097,38.7253,40.695,1.00773
1.39,1.57337,1.02343,39.694,38.7097,40.6792,1.00779
1.4,1.57923,1.02359,39.6782,38.6941,40.6633,1.00785
1.41,1.58521,1.02376,39.6624,38.6784,40.6474,1.00791
1.42,1.59103,1.02393,39.6465,38.6626,40.6314,1.00797
1.43,1.59669,1.0241,39.6306,38.6468,40.6154,1.00803
1.44,1.60224,1.02426,39.6146,38.6309,40.5993,1.00809
1.45,1.60783,1.02443,39.5985,38.615,40.5832,1.00814
1.46,1.61338,1.02459,39.5824,38.599,40.567,1.00819
1.47,1.61899,1.02476,39.5663,38.583,40.5507,1.00825
1.48,1.62445,1.02492,39.5501,38.5669,40.5344,1.0083
1.49,1.63001,1.02508,39.5338,38.5507,40.5181,1.00835
1.5,1.63544,1.02524,39.5175,38.5345,40.5016,1.0084
1.51,1.64092,1.0254,39.5011,38.5182,40.4852,1.00846
1.52,1.64619,1.02555,39.4846,38.5019,40.4686,1.00851
1.53,1.65149,1.0257,39.4681,38.4855,40.4521,1.00856
1.54,1.65662,1.02584,39.4516,38.469,40.4354,1.00861
1.55,1.66172,1.02597,39.435,38.4525,40.4188,1.00865
1.56,1.66687,1.0261,39.4184,38.436,40.4021,1.0087
1.57,1.67199,1.02622,39.4017,38.4194,40.3853,1.00874
1.58,1.67699,1.02636,39.3849,38.4027,40.3685,1.00878
1.59,1.68192,1.02648,39.3681,38.386,40.3516,1.00882
1.6,1.68692,1.02662,39.3513,38.3693,40.3347,1.00888
1.61,1.69182,1.02677,39.3344,38.3525,40.3177,1.00893
1.62,1.69673,1.02692,39.3175,38.3356,40.3007,1.00898
1.63,1.70148,1.02707,39.3005,38.3188,40.2836,1.00903
1.64,1.70658,1.02722,39.2834,38.3018,40.2665,1.00907
1.65,1.71127,1.02736,39.2663,38.2848,40.2493,1.00912
1.66,1.71606,1.02752,39.2492,38.2678,40.2321,1.00917
1.67,1.72062,1.02767,39.232,38.2507,40.2148,1.00921
1.68,1.72516,1.02781,39.2148,38.2336,40.1975,1.00926
1.69,1.72962,1.02794,39.1975,38.2164,40.1802,1.0093
1.7,1.73408,1.02806,39.1802,38.1992,40.1628,1.00935
1.71,1.73855,1.02821,39.1628,38.182,40.1454,1.00941
1.72,1.74294,1.02836,39.1454,38.1646,40.1279,1.00946
1.73,1.74723,1.02852,39.128,38.1473,40.1103,1.00952
1.74,1.75147,1.02868,39.1105,38.1299,40.0928,1.00957
1.75,1.75568,1.02883,39.093,38.1125,40.0751,1.00962
1.76,1.75992,1.02898,39.0754,38.095,40.0574,1.00966
1.77,1.76409,1.02911,39.0578,38.0775,40.0397,1.00969
1.78,1.76839,1.02923,39.0401,38.0599,40.022,1.00972
1.79,1.77252,1.02935,39.0224,38.0423,40.0042,1.00978
1.8,1.77668,1.0295,39.0046,38.0246,39.9864,1.00983
1.81,1.78075,1.02963,38.9869,38.0069,39.9686,1.00988
1.82,1.78481,1.02976,38.969,37.9892,39.9506,1.00992
1.83,1.78894,1.02989,38.9512,37.9714,39.9327,1.00996
1.84,1.79298,1.02999,38.9333,37.9536,39.9148,1.01
1.85,1.79696,1.03008,38.9153,37.9357,39.8968,1.01002
1.86,1.8009,1.03019,38.8973,37.9178,39.8787,1.01007
1.87,1.80477,1.03031,38.8793,37.8998,39.8607,1.01012
1.88,1.80866,1.03044,38.8612,37.8819,39.8425,1.01017
1.89,1.81245,1.03056,38.8431,37.8638,39.8243,1.0102
1.9,1.81619,1.03067,38.825,37.8458,39.8061,1.01023
1.91,1.8199,1.03077,38.8068,37.8277,39.7879,1.01025
1.92,1.82371,1.03087,38.7886,37.8096,39.7696,1.01029
1.93,1.8274,1.03098,38.7703,37.7914,39.7513,1.01034
1.94,1.83125,1.03112,38.752,37.7732,39.733,1.01038
1.95,1.83482,1.03124,38.7337,37.7549,39.7145,1.01041
1.96,1.83838,1.03135,38.7153,37.7367,39.6961,1.01044
1.97,1.84199,1.03145,38.6969,37.7183,39.6776,1.01047
1.98,1.84549,1.03156,38.6785,37.7,39.6592,1.01053
1.99,1.84897,1.03169,38.66,37.6816,39.6406,1.01058
2,1.85238,1.03182,38.6415,37.6631,39.6221,1.01062
2.01,1.85572,1.03192,38.623,37.6447,39.6034,1.01065
2.02,1.85901,1.03202,38.6044,37.6262,39.5848,1.01068
2.03,1.8624,1.03212,38.5858,37.6076,39.5661,1.01072
2.04,1.86569,1.03224,38.5672,37.5891,39.5475,1.01077
2.05,1.86912,1.03239,38.5485,37.5705,39.5287,1.01082
2.06,1.87232,1.03251,38.5298,37.5519,39.5099,1.01085
2.07,1.87555,1.0326,38.511,37.5332,39.4911,1.01087
2.08,1.87879,1.03269,38.4923,37.5145,39.4723,1.0109
2.09,1.88195,1.03279,38.4735,37.4957,39.4535,1.01095
2.1,1.88502,1.03293,38.4546,37.477,39.4345,1.01099
2.11,1.88816,1.03306,38.4358,37.4582,39.4156,1.01103
2.12,1.89128,1.03315,38.4169,37.4394,39.3966,1.01105
2.13,1.89441,1.03324,38.3979,37.4206,39.3777,1.01109
2.14,1.89751,1.03332,38.379,37.4017,39.3587,1.01114
2.15,1.90047,1.03345,38.36,37.3828,39.3397,1.01117
2.16,1.9034,1.03356,38.341,37.3638,39.3205,1.0112
2.17,1.90646,1.03364,38.3219,37.3448,39.3014,1.01121
2.18,1.90944,1.03373,38.3028,37.3258,39.2823,1.01127
2.19,1.91241,1.03383,38.2837,37.3068,39.2632,1.01131
2.2,1.91529,1.03396,38.2646,37.2877,39.2439,1.01133
2.21,1.91813,1.03404,38.2454,37.2686,39.2247,1.01134
2.22,1.92094,1.03414,38.2262,37.2495,39.2055,1.01138
2.23,1.92368,1.0342,38.207,37.2303,39.1862,1.01143
2.24,1.92655,1.03432,38.1878,37.2111,39.1669,1.01146
2.25,1.92931,1.03443,38.1685,37.1919,39.1476,1.01148
2.26,1.93207,1.03451,38.1492,37.1727,39.1282,1.0115
2.27,1.93473,1.03458,38.1298,37.1534,39.1089,1.01155
2.28,1.93737,1.03466,38.1105,37.1341,39.0895,1.01159
2.29,1.93999,1.03478,38.0911,37.1148,39.07,1.01161
2.3,1.94274,1.03486,38.0717,37.0954,39.0505,1.01163
2.31,1.9454,1.03494,38.0522,37.0761,39.0311,1.01168
2.32,1.94803,1.03502,38.0328,37.0566,39.0116,1.01171
2.33,1.9506,1.03513,38.0133,37.0372,38.992,1.01172
2.34,1.95327,1.03521,37.9938,37.0178,38.9724,1.01174
2.35,1.95579,1.0353,37.9742,36.9983,38.9529,1.01179
2.36,1.95825,1.03536,37.9546,36.9787,38.9333,1.01182
2.37,1.96075,1.03548,37.935,36.9592,38.9136,1.01184
2.38,1.96324,1.03557,37.9154,36.9397,38.8939,1.01185
2.39,1.96577,1.03564,37.8958,36.9201,38.8742,1.0119
2.4,1.96812,1.03569,37.8761,36.9004,38.8546,1.01194
2.41,1.97052,1.0358,37.8564,36.8808,38.8348,1.01195
2.42,1.97282,1.03588,37.8367,36.8612,38.815,1.01197
2.43,1.97519,1.03595,37.817,36.8415,38.7953,1.01202
2.44,1.97759,1.03603,37.7972,36.8218,38.7755,1.01205
2.45,1.97986,1.03614,37.7774,36.8021,38.7556,1.01206
2.46,1.98225,1.03623,37.7576,36.7823,38.7357,1.01209
2.47,1.98451,1.03628,37.7378,36.7625,38.7159,1.01213
2.48,1.98676,1.03637,37.7179,36.7427,38.696,1.01215
2.49,1.98899,1.03646,37.698,36.7229,38.676,1.01215
2.5,1.99119,1.03656,37.6781,36.7031,38.6561,1.0122
2.51,1.99336,1.03661,37.6582,36.6832,38.6362,1.01224
2.52,1.99551,1.03671,37.6383,36.6633,38.6161,1.01225
2.53,1.9976,1.03679,37.6183,36.6434,38.5961,1.01227
2.54,1.99979,1.03686,37.5983,36.6235,38.5761,1.01232
2.55,2.00198,1.03692,37.5783,36.6035,38.5561,1.01235
2.56,2.0041,1.03701,37.5583,36.5835,38.536,1.01235
2.57,2.00626,1.0371,37.5382,36.5635,38.5159,1.01239
2.58,2.00835,1.03715,37.5182,36.5435,38.4958,1.01242
2.59,2.01041,1.03722,37.4981,36.5235,38.4757,1.01244
2.6,2.01249,1.0373,37.4779,36.5034,38.4555,1.01244
2.61,2.01439,1.03739,37.4578,36.4833,38.4353,1.01249
2.62,2.01644,1.03742,37.4377,36.4632,38.4152,1.01251
2.63,2.01845,1.03751,37.4175,36.4431,38.3949,1.01251
2.64,2.0206,1.0376,37.3973,36.4229,38.3747,1.01255
2.65,2.02247,1.03763,37.3771,36.4027,38.3545,1.01258
2.66,2.02461,1.03769,37.3568,36.3826,38.3342,1.01259
2.67,2.02637,1.03778,37.3366,36.3624,38.3139,1.01261
2.68,2.02833,1.03784,37.3163,36.3421,38.2936,1.01265
2.69,2.03025,1.03788,37.296,36.3219,38.2733,1.01267
2.7,2.03212,1.03796,37.2757,36.3016,38.2529,1.01266
2.71,2.03397,1.03805,37.2554,36.2814,38.2325,1.01271
2.72,2.03581,1.03809,37.235,36.261,38.2122,1.01274
2.73,2.03759,1.03817,37.2147,36.2407,38.1917,1.01274
2.74,2.0393,1.03827,37.1943,36.2204,38.1713,1.01277
2.75,2.04106,1.03832,37.1739,36.2,38.1509,1.01281
2.76,2.0428,1.03838,37.1535,36.1797,38.1304,1.01282
2.77,2.04456,1.03847,37.133,36.1593,38.1099,1.01283
2.78,2.04631,1.03853,37.1126,36.1389,38.0895,1.01288
2.79,2.04795,1.03856,37.0921,36.1184,38.069,1.01289
2.8,2.04969,1.03866,37.0716,36.098,38.0484,1.0129
2.81,2.05149,1.03873,37.0511,36.0775,38.0279,1.01295
2.82,2.05327,1.03876,37.0306,36.057,38.0074,1.01296
2.83,2.05503,1.03883,37.01,36.0366,37.9867,1.01295
2.84,2.05679,1.03892,36.9895,36.016,37.9661,1.013
2.85,2.05841,1.03894,36.9689,35.9955,37.9456,1.01302
2.86,2.05997,1.03901,36.9483,35.9749,37.9249,1.01301
2.87,2.06162,1.03909,36.9277,35.9544,37.9043,1.01305
2.88,2.06326,1.03912,36.9071,35.9338,37.8837,1.01308
2.89,2.0648,1.03919,36.8864,35.9132,37.863,1.01308
2.9,2.06641,1.03927,36.8658,35.8926,37.8423,1.01311
2.91,2.06782,1.0393,36.8451,35.872,37.8216,1.01315
2.92,2.06936,1.03935,36.8244,35.8513,37.8009,1.01315
2.93,2.07091,1.03944,36.8037,35.8307,37.7801,1.01318
2.94,2.07246,1.03948,36.783,35.81,37.7594,1.01321
2.95,2.07401,1.03953,36.7623,35.7893,37.7386,1.01321
2.96,2.07564,1.03961,36.7415,35.7686,37.7178,1.01322
2.97,2.07715,1.03965,36.7208,35.7478,37.6971,1.01326
2.98,2.07854,1.03969,36.7,35.7271,37.6762,1.01326
2.99,2.08002,1.03978,36.6792,35.7064,37.6554,1.01327
3,2.08144,1.03983,36.6584,35.6856,37.6346,1.01331
3.01,2.08283,1.03987,36.6376,35.6648,37.6137,1.01331
3.02,2.08445,1.03994,36.6167,35.644,37.5928,1.01333
3.03,2.08571,1.03998,36.5959,35.6232,37.572,1.01337
3.04,2.08717,1.04001,36.575,35.6023,37.5511,1.01337
3.05,2.08857,1.04009,36.5541,35.5815,37.5302,1.01339
3.06,2.09003,1.04012,36.5332,35.5606,37.5093,1.01342
3.07,2.09143,1.04016,36.5123,35.5398,37.4883,1.01342
3.08,2.09281,1.04023,36.4914,35.5189,37.4674,1.01344
3.09,2.09416,1.04027,36.4705,35.498,37.4465,1.01347
3.1,2.09542,1.04031,36.4495,35.4771,37.4255,1.01346
3.11,2.09695,1.04039,36.4286,35.4562,37.4044,1.01349
3.12,2.09824,1.04043,36.4076,35.4352,37.3835,1.01351
3.13,2.09953,1.04047,36.3866,35.4143,37.3624,1.01351
3.14,2.10089,1.04055,36.3656,35.3933,37.3414,1.01354
3.15,2.1021,1.04058,36.3446,35.3723,37.3204,1.01357
3.16,2.10334,1.04062,36.3236,35.3513,37.2993,1.01356
3.17,2.10458,1.0407,36.3025,35.3303,37.2783,1.0136
3.18,2.10584,1.04073,36.2815,35.3093,37.2572,1.01362
3.19,2.10722,1.04077,36.2604,35.2883,37.2361,1.01361
3.2,2.1085,1.04084,36.2393,35.2672,37.215,1.01365
3.21,2.10959,1.04086,36.2182,35.2461,37.1939,1.01367
3.22,2.11083,1.04091,36.1971,35.2251,37.1727,1.01365
3.23,2.11202,1.04099,36.176,35.204,37.1516,1.0137
3.24,2.11317,1.04101,36.1549,35.1829,37.1305,1.01371
3.25,2.11445,1.04108,36.1338,35.1618,37.1092,1.0137
3.26,2.11563,1.04113,36.1126,35.1407,37.0881,1.01374
3.27,2.11673,1.04114,36.0914,35.1196,37.067,1.01375
3.28,2.11788,1.04121,36.0703,35.0984,37.0457,1.01376
3.29,2.11908,1.04126,36.0491,35.0773,37.0245,1.0138
3.3,2.12027,1.04126,36.0279,35.0561,37.0033,1.01379
3.31,2.12141,1.04134,36.0067,35.0349,36.9821,1.01381
3.32,2.12257,1.04138,35.9855,35.0137,36.9609,1.01384
3.33,2.12353,1.04138,35.9642,34.9925,36.9396,1.01382
3.34,2.12465,1.04147,35.943,34.9713,36.9183,1.01386
3.35,2.12587,1.04151,35.9217,34.9501,36.8971,1.01387
3.36,2.12693,1.04153,35.9005,34.9289,36.8757,1.01386
3.37,2.12795,1.04161,35.8792,34.9076,36.8544,1.0139
3.38,2.12903,1.04163,35.8579,34.8864,36.8332,1.01391
3.39,2.13,1.04166,35.8366,34.8651,36.8118,1.01391
3.4,2.131,1.04172,35.8153,34.8438,36.7905,1.01395
3.41,2.1322,1.04173,35.794,34.8225,36.7692,1.01395
3.42,2.13324,1.04178,35.7727,34.8012,36.7478,1.01396
3.43,2.13435,1.04182,35.7513,34.7799,36.7265,1.01398
3.44,2.13544,1.04183,35.73,34.7586,36.7051,1.01397
3.45,2.13637,1.04189,35.7086,34.7372,36.6837,1.014
3.46,2.13736,1.04192,35.6873,34.7159,36.6624,1.01401
3.47,2.13836,1.04195,35.6659,34.6946,36.6409,1.014
3.48,2.1393,1.04201,35.6445,34.6732,36.6195,1.01404
3.49,2.14046,1.04203,35.6231,34.6518,36.5981,1.01404
3.5,2.14149,1.04207,35.6017,34.6305,36.5767,1.01405
3.51,2.1423,1.04211,35.5803,34.6091,36.5553,1.01408
3.52,2.1433,1.04212,35.5588,34.5876,36.5338,1.01407
3.53,2.14422,1.04218,35.5374,34.5662,36.5123,1.01409
3.54,2.14516,1.04221,35.516,34.5448,36.4909,1.01412
3.55,2.14613,1.04222,35.4945,34.5234,36.4694,1.01409
3.56,2.14705,1.04229,35.473,34.5019,36.4479,1.01413
3.57,2.14797,1.04232,35.4516,34.4805,36.4264,1.01414
3.58,2.14906,1.04236,35.4301,34.459,36.4049,1.01414
3.59,2.14998,1.0424,35.4086,34.4376,36.3834,1.01417
3.6,2.15086,1.04243,35.3871,34.4161,36.3619,1.01417
3.61,2.15179,1.04249,35.3656,34.3946,36.3403,1.01419
3.62,2.1525,1.04251,35.344,34.3731,36.3188,1.01421
3.63,2.15336,1.04253,35.3225,34.3516,36.2972,1.0142
3.64,2.15413,1.0426,35.301,34.3301,36.2757,1.01424
3.65,2.15499,1.04261,35.2794,34.3086,36.2542,1.01425
3.66,2.15593,1.04266,35.2579,34.287,36.2325,1.01425
3.67,2.15687,1.04269,35.2363,34.2655,36.211,1.01428
3.68,2.15758,1.04269,35.2147,34.2439,36.1894,1.01426
3.69,2.1584,1.04277,35.1932,34.2224,36.1678,1.01429
3.7,2.15921,1.04279,35.1716,34.2008,36.1462,1.0143
3.71,2.16009,1.04282,35.15,34.1793,36.1245,1.01429
3.72,2.16088,1.04288,35.1284,34.1577,36.1029,1.01432
3.73,2.16174,1.04288,35.1068,34.1361,36.0813,1.01433
3.74,2.16237,1.04292,35.0851,34.1145,36.0597,1.01434
3.75,2.16328,1.04295,35.0635,34.0929,36.0381,1.01436
3.76,2.16407,1.04296,35.0419,34.0713,36.0164,1.01434
3.77,2.16497,1.04301,35.0202,34.0496,35.9947,1.01438
3.78,2.1658,1.04302,34.9986,34.028,35.9731,1.01438
3.79,2.16663,1.04306,34.9769,34.0064,35.9514,1.01438
3.8,2.16727,1.04309,34.9553,33.9847,35.9297,1.01441
