time,velocity,ratio,centerX,Xmax,Xmin,Ymax
0,0,1,2.75,1.75,3.75,1
0.01,0.0194409,1,2.74991,1.74991,3.7499,1
0.02,0.0386995,1.00001,2.74962,1.74962,3.74961,1
0.03,0.0577557,1.00002,2.74914,1.74915,3.74912,1.00001
0.04,0.0766142,1.00004,2.74848,1.7485,3.74844,1.00001
0.05,0.0952908,1.00006,2.74762,1.74766,3.74757,1.00001
0.06,0.113764,1.00008,2.74658,1.74664,3.74651,1.00002
0.07,0.13206,1.0001,2.74536,1.74544,3.74528,1.00002
0.08,0.150162,1.00014,2.74395,1.74407,3.74384,1.00002
0.09,0.168098,1.00016,2.74237,1.74252,3.74224,1.00002
0.1,0.185839,1.00023,2.7406,1.7408,3.74045,1.00006
0.11,0.203427,1.0003,2.73866,1.73891,3.73848,1.00009
0.12,0.220825,1.00039,2.73654,1.73686,3.73633,1.00012
0.13,0.238052,1.00048,2.73425,1.73465,3.734,1.00015
0.14,0.255113,1.00059,2.73179,1.73228,3.73148,1.00019
0.15,0.272008,1.00072,2.72916,1.72975,3.72877,1.00022
0.16,0.288729,1.00086,2.72636,1.72705,3.72586,1.00026
0.17,0.305286,1.00108,2.7234,1.72423,3.72276,1.00034
0.18,0.321671,1.0013,2.72027,1.72124,3.71948,1.00042
0.19,0.337898,1.00154,2.71697,1.71812,3.71603,1.00049
0.2,0.353927,1.0018,2.71352,1.71484,3.71238,1.00057
0.21,0.369792,1.00209,2.7099,1.71141,3.70855,1.00066
0.22,0.385492,1.00244,2.70613,1.70784,3.70455,1.00079
0.23,0.40102,1.00281,2.7022,1.70415,3.70036,1.00091
0.24,0.416364,1.00322,2.69812,1.70032,3.69597,1.00104
0.25,0.431525,1.00366,2.69388,1.69637,3.6914,1.00117
0.26,0.446487,1.00416,2.6895,1.69228,3.68668,1.00135
0.27,0.461329,1.0047,2.68496,1.68806,3.68174,1.00153
0.28,0.475585,1.00527,2.68028,1.68372,3.67661,1.0017
0.29,0.489816,1.00592,2.67546,1.67928,3.67134,1.00192
0.3,0.504165,1.0066,2.67049,1.67473,3.6659,1.00216
0.31,0.518321,1.00731,2.66538,1.67005,3.66025,1.00238
0.32,0.532272,1.0081,2.66013,1.66525,3.65442,1.00264
0.33,0.54606,1.00898,2.65475,1.66035,3.64836,1.00293
0.34,0.559668,1.00986,2.64922,1.65535,3.64214,1.0032
0.35,0.572904,1.01081,2.64356,1.65023,3.63579,1.00352
0.36,0.586102,1.01185,2.63777,1.64501,3.62919,1.00385
0.37,0.599117,1.01289,2.63185,1.6397,3.62247,1.00417
0.38,0.61197,1.01407,2.6258,1.63428,3.61551,1.00456
0.39,0.624598,1.01524,2.61962,1.62873,3.60843,1.00493
0.4,0.637042,1.01642,2.61331,1.62311,3.60125,1.00531
0.41,0.649373,1.01774,2.60688,1.61741,3.59382,1.00574
0.42,0.660908,1.01909,2.60033,1.6116,3.58622,1.00615
0.43,0.672593,1.02055,2.59367,1.60571,3.57841,1.00662
0.44,0.68424,1.02201,2.58689,1.59972,3.57051,1.00708
0.45,0.695623,1.02354,2.57999,1.59362,3.56239,1.00756
0.46,0.706835,1.02512,2.57298,1.58744,3.55417,1.00807
0.47,0.717884,1.02674,2.56586,1.58117,3.54575,1.00856
0.48,0.728709,1.02841,2.55863,1.57483,3.5373,1.00911
0.49,0.739201,1.03011,2.55129,1.56839,3.52862,1.00963
0.5,0.7496,1.03192,2.54385,1.56185,3.51978,1.01021
0.51,0.75872,1.03374,2.53632,1.55526,3.51082,1.01077
0.52,0.768462,1.03566,2.52868,1.5486,3.50169,1.01137
0.53,0.778187,1.03757,2.52095,1.54185,3.4925,1.01196
0.54,0.787798,1.03959,2.51312,1.53504,3.48309,1.01259
0.55,0.797345,1.04153,2.5052,1.52814,3.47376,1.01321
0.56,0.806711,1.04359,2.49718,1.52118,3.4642,1.01386
0.57,0.815878,1.0457,2.48907,1.51415,3.45449,1.01451
0.58,0.824971,1.04784,2.48087,1.50704,3.4447,1.01518
0.59,0.83391,1.04999,2.47258,1.49981,3.43478,1.01585
0.6,0.842501,1.05221,2.4642,1.49256,3.42476,1.01654
0.61,0.851051,1.05441,2.45573,1.48525,3.41474,1.01723
0.62,0.859505,1.05668,2.44718,1.47787,3.40457,1.01794
0.63,0.867736,1.05894,2.43855,1.47043,3.39433,1.01865
0.64,0.875881,1.06128,2.42983,1.46291,3.38396,1.01939
0.65,0.883767,1.06361,2.42104,1.45534,3.37352,1.02009
0.66,0.891479,1.06601,2.41216,1.44771,3.363,1.02086
0.67,0.89916,1.06833,2.40321,1.43998,3.35247,1.02158
0.68,0.906673,1.07072,2.39418,1.4322,3.34188,1.02237
0.69,0.914025,1.07309,2.38508,1.42436,3.33121,1.02311
0.7,0.921274,1.07552,2.37591,1.41645,3.32043,1.02388
0.71,0.928314,1.07796,2.36666,1.40848,3.30957,1.02465
0.72,0.935278,1.08037,2.35734,1.40045,3.29869,1.0254
0.73,0.942127,1.0828,2.34796,1.39236,3.2878,1.02619
0.74,0.948804,1.08521,2.33851,1.38423,3.27685,1.02695
0.75,0.955389,1.08768,2.32899,1.37599,3.2658,1.02775
0.76,0.961716,1.09012,2.3194,1.36773,3.25473,1.02853
0.77,0.968206,1.09259,2.30976,1.35941,3.24356,1.0293
0.78,0.974348,1.0951,2.30004,1.35103,3.23233,1.0301
0.79,0.980539,1.09745,2.29027,1.34258,3.22125,1.03086
0.8,0.986731,1.09987,2.28044,1.33407,3.21003,1.03165
0.81,0.992544,1.10232,2.27054,1.32552,3.19873,1.03243
0.82,0.998438,1.10467,2.26059,1.31687,3.18742,1.03317
0.83,1.00413,1.10709,2.25058,1.30817,3.17608,1.03397
0.84,1.00988,1.10947,2.24051,1.29941,3.1647,1.03474
0.85,1.01477,1.11179,2.23039,1.29061,3.15335,1.03548
0.86,1.02031,1.11417,2.22021,1.28176,3.14193,1.03627
0.87,1.02565,1.11649,2.20998,1.27284,3.13048,1.03702
0.88,1.03101,1.11884,2.1997,1.26391,3.11895,1.03775
0.89,1.03633,1.12119,2.18937,1.25488,3.10739,1.03851
0.9,1.0415,1.1234,2.17898,1.24579,3.09596,1.03924
0.91,1.04658,1.12564,2.16854,1.23667,3.08441,1.03995
0.92,1.05166,1.12794,2.15805,1.22749,3.07279,1.04069
0.93,1.05664,1.13016,2.14751,1.21827,3.06117,1.04139
0.94,1.06141,1.13233,2.13692,1.20896,3.04952,1.04207
0.95,1.06628,1.13455,2.12629,1.19963,3.03786,1.04278
0.96,1.07086,1.13667,2.1156,1.19021,3.02622,1.04346
0.97,1.0756,1.13875,2.10487,1.18074,3.01451,1.0441
0.98,1.08032,1.14087,2.09409,1.17125,3.0028,1.04478
0.99,1.08496,1.14295,2.08327,1.16167,2.99104,1.04544
1,1.08947,1.145,2.0724,1.15204,2.97922,1.04606
1.01,1.09402,1.14697,2.06148,1.14238,2.96751,1.04668
1.02,1.09826,1.14896,2.05052,1.13265,2.95572,1.04731
1.03,1.10241,1.15091,2.03952,1.12285,2.94386,1.04791
1.04,1.10654,1.15285,2.02848,1.11304,2.93198,1.04848
1.05,1.11096,1.15479,2.01739,1.10317,2.92009,1.04908
1.06,1.11515,1.15664,2.00626,1.09325,2.90827,1.04966
1.07,1.11927,1.15849,1.99509,1.08328,2.89637,1.05022
1.08,1.12325,1.16031,1.98388,1.07325,2.88441,1.05075
1.09,1.127,1.16212,1.97263,1.06315,2.87245,1.05131
1.1,1.13074,1.1639,1.96134,1.05301,2.86047,1.05185
1.11,1.13449,1.16561,1.95002,1.04282,2.84851,1.05236
1.12,1.1381,1.16725,1.93866,1.03258,2.83654,1.05284
1.13,1.14182,1.16897,1.92726,1.02229,2.82451,1.05337
1.14,1.14543,1.17066,1.91582,1.01198,2.81245,1.05387
1.15,1.14905,1.17227,1.90435,1.00157,2.80038,1.05435
1.16,1.15244,1.17385,1.89284,0.991147,2.78828,1.05478
1.17,1.15592,1.17545,1.8813,0.980701,2.77622,1.05527
1.18,1.15932,1.17702,1.86973,0.970179,2.76409,1.05573
1.19,1.16263,1.17855,1.85812,0.959624,2.75194,1.05617
1.2,1.16597,1.18008,1.84648,0.949055,2.73976,1.05658
1.21,1.169,1.18159,1.83481,0.93839,2.72754,1.05702
1.22,1.17203,1.18303,1.8231,0.927696,2.7154,1.05746
1.23,1.17513,1.18447,1.81137,0.916983,2.70321,1.05787
1.24,1.17807,1.18589,1.7996,0.906216,2.69097,1.05825
1.25,1.18076,1.1873,1.78781,0.895395,2.67868,1.05864
1.26,1.1836,1.18878,1.77599,0.884582,2.66635,1.05906
1.27,1.18639,1.19012,1.76414,0.873692,2.65411,1.05946
1.28,1.1891,1.19148,1.75226,0.862792,2.64181,1.05983
1.29,1.19156,1.19284,1.74036,0.851868,2.62944,1.06017
1.3,1.1941,1.19426,1.72843,0.840922,2.61702,1.06056
1.31,1.19653,1.19566,1.71648,0.829941,2.60459,1.06094
1.32,1.19884,1.19697,1.7045,0.818929,2.59224,1.06131
1.33,1.20113,1.19828,1.69251,0.807856,2.57982,1.06165
1.34,1.2032,1.19962,1.68049,0.796794,2.56733,1.06199
1.35,1.2053,1.20102,1.66844,0.785702,2.55482,1.06237
1.36,1.20723,1.2024,1.65638,0.774592,2.54228,1.06273
1.37,1.20913,1.20372,1.6443,0.763483,2.52981,1.06308
1.38,1.21088,1.20505,1.6322,0.752338,2.51728,1.06342
1.39,1.21238,1.20641,1.62009,0.741193,2.5047,1.06375
1.4,1.21396,1.20785,1.60796,0.730061,2.49209,1.06413
1.41,1.21535,1.20927,1.59581,0.718903,2.47946,1.0645
1.42,1.21665,1.21063,1.58365,0.707742,2.46691,1.06485
1.43,1.21779,1.21203,1.57148,0.696599,2.45429,1.06519
1.44,1.21879,1.21343,1.5593,0.685397,2.44163,1.06553
1.45,1.21969,1.21491,1.54711,0.674208,2.42894,1.06592
1.46,1.22042,1.21639,1.53491,0.663027,2.41623,1.06629
1.47,1.22114,1.21783,1.5227,0.651865,2.4036,1.06666
1.48,1.22154,1.2193,1.51049,0.640716,2.39092,1.06701
1.49,1.22192,1.2208,1.49827,0.629562,2.3782,1.06737
1.5,1.22208,1.22237,1.48605,0.618409,2.36546,1.06777
1.51,1.22199,1.22398,1.47383,0.607321,2.3527,1.06816
1.52,1.22196,1.22554,1.46161,0.596244,2.34003,1.06854
1.53,1.22164,1.22715,1.4494,0.585181,2.32731,1.06893
1.54,1.22126,1.22882,1.43718,0.57417,2.31456,1.06931
1.55,1.22077,1.23055,1.42497,0.563142,2.30179,1.06974
1.56,1.2201,1.23232,1.41277,0.552166,2.289,1.07017
1.57,1.21929,1.23407,1.40057,0.541231,2.27628,1.07059
1.58,1.21826,1.23588,1.38839,0.530333,2.26353,1.07101
1.59,1.21687,1.23771,1.37621,0.519476,2.25078,1.07143
1.6,1.21542,1.23969,1.36405,0.508701,2.238,1.0719
1.61,1.21382,1.24168,1.3519,0.497931,2.22522,1.07236
1.62,1.21202,1.24366,1.33977,0.487238,2.21252,1.07283
1.63,1.21,1.24572,1.32766,0.476618,2.19978,1.07329
1.64,1.20759,1.24783,1.31558,0.466062,2.18705,1.07376
1.65,1.20504,1.25007,1.30351,0.45558,2.17432,1.07427
1.66,1.20232,1.25236,1.29148,0.44516,2.16159,1.07479
1.67,1.19954,1.25463,1.27947,0.434781,2.14893,1.07531
1.68,1.19638,1.25698,1.26749,0.424495,2.13625,1.07582
1.69,1.19306,1.2594,1.25554,0.414311,2.1236,1.07634
1.7,1.18958,1.26196,1.24363,0.404217,2.11094,1.07691
1.71,1.1858,1.26459,1.23175,0.39422,2.09832,1.07749
1.72,1.18175,1.26724,1.21992,0.384322,2.08577,1.07807
1.73,1.17753,1.26996,1.20812,0.374502,2.07321,1.07864
1.74,1.17307,1.27275,1.19637,0.364798,2.06068,1.07921
1.75,1.16819,1.27571,1.18466,0.355214,2.04816,1.07986
1.76,1.16323,1.27873,1.173,0.345733,2.03569,1.0805
1.77,1.158,1.28179,1.1614,0.336372,2.02329,1.08114
1.78,1.15255,1.28497,1.14984,0.327153,2.0109,1.08178
1.79,1.14678,1.28824,1.13835,0.31805,1.99855,1.08244
1.8,1.14067,1.29163,1.12691,0.309041,1.98624,1.08316
1.81,1.13433,1.29512,1.11553,0.300203,1.97399,1.08387
1.82,1.12764,1.29867,1.10422,0.291513,1.96183,1.0846
1.83,1.12076,1.30234,1.09298,0.282956,1.94968,1.08532
1.84,1.1136,1.30617,1.08181,0.274568,1.93758,1.08609
1.85,1.10611,1.31012,1.07071,0.266339,1.92554,1.08688
1.86,1.09824,1.31417,1.05969,0.258276,1.91356,1.08767
1.87,1.09011,1.31824,1.04874,0.250321,1.90171,1.08846
1.88,1.08165,1.3225,1.03788,0.242556,1.88988,1.0893
1.89,1.07297,1.32693,1.02711,0.23497,1.87811,1.09017
1.9,1.06395,1.33147,1.01643,0.227569,1.86641,1.09104
1.91,1.05462,1.33613,1.00583,0.220346,1.85477,1.0919
1.92,1.04502,1.34087,0.995332,0.213281,1.84329,1.09281
1.93,1.03485,1.34581,0.984932,0.206437,1.83187,1.09376
1.94,1.02452,1.35088,0.974634,0.199801,1.82051,1.0947
1.95,1.0139,1.35606,0.96444,0.193343,1.80924,1.09563
1.96,1.00299,1.3614,0.954355,0.187033,1.79806,1.09663
1.97,0.991663,1.36686,0.94438,0.180914,1.787,1.09765
1.98,0.980047,1.37239,0.934521,0.174962,1.77605,1.09866
1.99,0.96814,1.37813,0.924779,0.16927,1.76517,1.09968
2,0.955848,1.38409,0.915157,0.163769,1.7544,1.10079
2.01,0.943168,1.39018,0.90566,0.158486,1.74371,1.10188
2.02,0.930172,1.3964,0.896292,0.153419,1.73313,1.10295
2.03,0.916841,1.40278,0.887056,0.148545,1.72271,1.10411
2.04,0.903223,1.40931,0.877955,0.14389,1.7124,1.10526
2.05,0.889289,1.41598,0.868992,0.13947,1.70219,1.10639
2.06,0.875022,1.42285,0.86017,0.135227,1.69212,1.10761
2.07,0.860402,1.42983,0.851492,0.131181,1.68216,1.10882
2.08,0.845441,1.43692,0.842962,0.127364,1.67233,1.11
2.09,0.830142,1.44423,0.834584,0.123759,1.66266,1.11126
2.1,0.814527,1.45161,0.82636,0.120323,1.65313,1.11252
2.11,0.798521,1.4591,0.818293,0.117092,1.64372,1.11375
2.12,0.782118,1.46681,0.810388,0.114057,1.63447,1.11508
2.13,0.765437,1.47455,0.80265,0.111204,1.62536,1.11635
2.14,0.748596,1.48245,0.795079,0.108548,1.61642,1.11767
2.15,0.731311,1.49041,0.787679,0.106033,1.60764,1.11901
2.16,0.713659,1.49838,0.780452,0.103666,1.59905,1.12033
2.17,0.695676,1.50648,0.773403,0.101455,1.59063,1.1217
2.18,0.677493,1.51443,0.766535,0.0992698,1.58236,1.12302
2.19,0.659201,1.52242,0.759851,0.0971114,1.57427,1.12443
2.2,0.640563,1.53023,0.753353,0.0949877,1.56635,1.12576
2.21,0.621717,1.53803,0.747042,0.0928833,1.55861,1.12717
2.22,0.602515,1.5456,0.740918,0.0907829,1.55106,1.1285
2.23,0.583258,1.55316,0.734986,0.0887008,1.54368,1.12991
2.24,0.563843,1.56049,0.729248,0.0866412,1.5365,1.13124
2.25,0.544175,1.56776,0.723706,0.0846201,1.52951,1.13262
2.26,0.524485,1.57486,0.718361,0.0826495,1.5227,1.13394
2.27,0.504652,1.5818,0.713214,0.0807067,1.51613,1.13527
2.28,0.484719,1.58865,0.708268,0.0788173,1.50972,1.1366
2.29,0.464711,1.59517,0.703521,0.0769695,1.50357,1.13783
2.3,0.444775,1.6016,0.698972,0.0751162,1.49759,1.13912
2.31,0.424651,1.60769,0.694622,0.0733143,1.49188,1.14031
2.32,0.404714,1.6135,0.690472,0.0715268,1.48637,1.14143
2.33,0.384835,1.61928,0.686522,0.0698154,1.48104,1.14259
2.34,0.364907,1.6247,0.682771,0.0681304,1.47597,1.14366
2.35,0.34516,1.62987,0.679219,0.0665322,1.47112,1.14464
2.36,0.325528,1.63469,0.675866,0.0649259,1.4665,1.14557
2.37,0.306007,1.6392,0.672709,0.0633616,1.46215,1.14644
2.38,0.28663,1.64345,0.669746,0.0618533,1.458,1.14725
2.39,0.267482,1.64735,0.666975,0.0603475,1.45408,1.14798
2.4,0.248512,1.65089,0.664394,0.0588665,1.45039,1.14863
2.41,0.229835,1.65418,0.662001,0.0574601,1.44694,1.14922
2.42,0.211332,1.65711,0.659793,0.0560473,1.44372,1.14976
2.43,0.19309,1.6597,0.65777,0.0547098,1.44074,1.1502
2.44,0.175152,1.66194,0.655928,0.0534242,1.43799,1.15054
2.45,0.157538,1.6638,0.654264,0.0521711,1.43549,1.15078
2.46,0.140282,1.66525,0.652774,0.0509597,1.43325,1.15093
2.47,0.123281,1.66638,0.651456,0.0498062,1.43125,1.151
2.48,0.106635,1.66711,0.650306,0.0486629,1.42948,1.15099
2.49,0.0902912,1.66751,0.649322,0.0475811,1.42794,1.15088
2.5,0.0742842,1.66759,0.648499,0.0465551,1.42662,1.15069
2.51,0.0586505,1.66732,0.647834,0.0455792,1.42553,1.15041
2.52,0.0432708,1.66669,0.647323,0.044632,1.42468,1.15006
2.53,0.0282461,1.66562,0.646965,0.0437026,1.4241,1.14961
2.54,0.0136273,1.66419,0.646755,0.0428196,1.42376,1.14907
2.55,-0.000582444,1.66243,0.646688,0.0419845,1.42365,1.14846
2.56,-0.0144506,1.6603,0.646762,0.0411847,1.42378,1.14776
2.57,-0.0278643,1.65782,0.646972,0.040426,1.42416,1.14699
2.58,-0.0411433,1.65499,0.647316,0.0397068,1.42478,1.14614
2.59,-0.0539778,1.6518,0.64779,0.0390344,1.42566,1.14522
2.6,-0.066417,1.64827,0.648391,0.0383868,1.42679,1.14423
2.61,-0.0785205,1.64442,0.649115,0.0377717,1.42814,1.14318
2.62,-0.0901955,1.64023,0.649958,0.0371773,1.42973,1.14206
2.63,-0.101637,1.63578,0.650917,0.0366104,1.43153,1.14089
2.64,-0.112583,1.63109,0.651987,0.0360733,1.43355,1.13971
2.65,-0.123289,1.62612,0.653165,0.0355662,1.43579,1.13846
2.66,-0.133759,1.62086,0.654449,0.0350851,1.43825,1.13717
2.67,-0.143864,1.61538,0.655837,0.0346301,1.44089,1.13582
2.68,-0.153641,1.60967,0.657323,0.0342031,1.44373,1.13443
2.69,-0.163093,1.6037,0.658906,0.0338017,1.44679,1.133
2.7,-0.172199,1.59757,0.660582,0.0334152,1.45,1.13155
2.71,-0.180931,1.59123,0.662347,0.0330405,1.45342,1.13008
2.72,-0.18928,1.58471,0.664197,0.0326772,1.45704,1.1286
2.73,-0.197437,1.57805,0.66613,0.0323457,1.46081,1.12709
2.74,-0.205244,1.5712,0.668143,0.0320432,1.46475,1.12554
2.75,-0.21275,1.56418,0.670233,0.0317727,1.46887,1.12394
2.76,-0.219954,1.55702,0.672395,0.0315251,1.47312,1.12229
2.77,-0.226814,1.54976,0.674629,0.0313023,1.47751,1.12064
2.78,-0.23333,1.54244,0.676929,0.0310626,1.48203,1.11902
2.79,-0.239541,1.53504,0.679293,0.0308344,1.48664,1.11736
2.8,-0.245463,1.52752,0.681717,0.0306407,1.49141,1.11567
2.81,-0.251045,1.5199,0.684199,0.0304634,1.49629,1.11395
2.82,-0.2564,1.51213,0.686736,0.0302735,1.50133,1.11222
2.83,-0.26128,1.50444,0.689324,0.0301196,1.50642,1.11051
2.84,-0.265897,1.49672,0.691959,0.0299558,1.51158,1.10878
2.85,-0.270222,1.48896,0.694639,0.0298202,1.51683,1.10705
2.86,-0.274191,1.48113,0.697361,0.0296753,1.52217,1.10529
2.87,-0.277883,1.47336,0.700121,0.0295518,1.52755,1.10355
2.88,-0.281308,1.46561,0.702916,0.0294372,1.53299,1.10182
2.89,-0.28445,1.45785,0.705745,0.0293227,1.5385,1.10007
2.9,-0.287277,1.45014,0.708603,0.0292246,1.54401,1.09833
2.91,-0.289768,1.44251,0.711488,0.0291576,1.54953,1.09657
2.92,-0.292015,1.43493,0.714396,0.0290586,1.55508,1.09487
2.93,-0.293924,1.42738,0.717326,0.0289828,1.56067,1.09315
2.94,-0.29556,1.41992,0.720273,0.0289263,1.56622,1.09142
2.95,-0.296862,1.41253,0.723235,0.0288764,1.57178,1.0897
2.96,-0.297862,1.40528,0.726208,0.028827,1.57732,1.08803
2.97,-0.298569,1.39815,0.72919,0.0287867,1.58281,1.08638
2.98,-0.299045,1.39106,0.732178,0.0287627,1.58833,1.08473
2.99,-0.299211,1.38407,0.735169,0.0287299,1.5938,1.08308
3,-0.299099,1.37721,0.73816,0.0287085,1.59927,1.08149
3.01,-0.298848,1.37048,0.74115,0.0286951,1.60469,1.07994
3.02,-0.298221,1.36388,0.744135,0.028674,1.61001,1.07838
3.03,-0.297308,1.35735,0.747112,0.0286691,1.61534,1.07683
3.04,-0.296118,1.35093,0.750079,0.0286772,1.62065,1.07532
3.05,-0.294662,1.34464,0.753033,0.0286749,1.62594,1.07387
3.06,-0.293007,1.33847,0.755971,0.0286799,1.63115,1.07243
3.07,-0.290987,1.33243,0.758891,0.0286948,1.63626,1.07099
3.08,-0.288872,1.32646,0.76179,0.028718,1.64138,1.06957
3.09,-0.286464,1.32068,0.764666,0.0287245,1.64641,1.06823
3.1,-0.283812,1.31499,0.767517,0.0287402,1.65142,1.0669
3.11,-0.281006,1.30942,0.770341,0.0287674,1.65635,1.06559
3.12,-0.278013,1.30394,0.773136,0.0287915,1.66121,1.06429
3.13,-0.274829,1.29861,0.7759,0.0288242,1.66604,1.06305
3.14,-0.27149,1.29342,0.778632,0.0288545,1.67077,1.06185
3.15,-0.267865,1.28835,0.781328,0.0288846,1.67543,1.06066
3.16,-0.264068,1.28336,0.783988,0.0289153,1.68004,1.05949
3.17,-0.260073,1.27848,0.786608,0.0289518,1.68458,1.05834
3.18,-0.255944,1.27376,0.789188,0.0289936,1.68905,1.05726
3.19,-0.251666,1.26916,0.791726,0.0290144,1.69345,1.05621
3.2,-0.247232,1.26469,0.79422,0.0290548,1.69775,1.05519
3.21,-0.242649,1.26032,0.79667,0.0290841,1.70197,1.05419
3.22,-0.237928,1.25607,0.799072,0.0291265,1.7061,1.0532
3.23,-0.233199,1.25192,0.801428,0.0291327,1.71018,1.05226
3.24,-0.228244,1.24792,0.803735,0.0291696,1.71418,1.05138
3.25,-0.22319,1.24404,0.805992,0.029194,1.71807,1.05051
3.26,-0.218036,1.24025,0.808198,0.0292221,1.72189,1.04967
3.27,-0.212758,1.23656,0.810352,0.0292189,1.72561,1.04884
3.28,-0.207363,1.233,0.812452,0.0292402,1.72923,1.04804
3.29,-0.201873,1.22958,0.814498,0.0292518,1.73272,1.04728
3.3,-0.19628,1.2263,0.816489,0.0292598,1.73612,1.04656
3.31,-0.190602,1.22311,0.818423,0.029242,1.73942,1.04586
3.32,-0.184826,1.22002,0.8203,0.0292485,1.74264,1.04519
3.33,-0.179153,1.21705,0.822119,0.0292424,1.74575,1.04454
3.34,-0.173256,1.21416,0.823881,0.0292323,1.74878,1.0439
3.35,-0.167289,1.21139,0.825584,0.0292079,1.75168,1.0433
3.36,-0.161301,1.20873,0.827226,0.0291633,1.75447,1.04271
3.37,-0.155261,1.2062,0.828809,0.0291274,1.75715,1.04217
3.38,-0.149191,1.20377,0.830331,0.0290943,1.75975,1.04166
3.39,-0.143081,1.20142,0.831792,0.0290342,1.76225,1.04117
3.4,-0.13695,1.19921,0.833192,0.0290007,1.76464,1.04069
3.41,-0.130801,1.19706,0.83453,0.0289166,1.76691,1.04024
3.42,-0.124648,1.19502,0.835807,0.0288373,1.76909,1.03982
3.43,-0.118666,1.19308,0.837023,0.0287719,1.77117,1.03941
3.44,-0.112503,1.19122,0.838179,0.0286794,1.77316,1.03902
3.45,-0.106334,1.18948,0.839273,0.0285994,1.77501,1.03866
3.46,-0.100172,1.18783,0.840305,0.0284983,1.77676,1.03832
3.47,-0.0940276,1.18629,0.841276,0.0284047,1.77841,1.038
3.48,-0.0880932,1.18483,0.842186,0.028295,1.77996,1.03771
3.49,-0.0819895,1.18349,0.843036,0.0281794,1.78139,1.03746
3.5,-0.0759061,1.18224,0.843825,0.0280552,1.78272,1.03722
3.51,-0.0698398,1.1811,0.844553,0.027919,1.78394,1.03701
3.52,-0.063992,1.18004,0.845223,0.0277926,1.78506,1.03683
3.53,-0.0579942,1.17908,0.845832,0.0276591,1.78608,1.03666
3.54,-0.0520278,1.1782,0.846382,0.0275164,1.787,1.03651
3.55,-0.0461039,1.17743,0.846873,0.0273757,1.7878,1.03639
3.56,-0.0404173,1.17673,0.847306,0.0272321,1.78851,1.03628
3.57,-0.0346032,1.17613,0.847681,0.0270802,1.78912,1.03619
3.58,-0.0288449,1.17562,0.847998,0.0269266,1.78962,1.03612
3.59,-0.0233382,1.17519,0.848259,0.0267761,1.79002,1.03608
3.6,-0.017709,1.17484,0.848464,0.0266168,1.79034,1.03605
3.61,-0.0122397,1.17458,0.848614,0.0264544,1.79057,1.03604
3.62,-0.00672519,1.17439,0.848709,0.0262981,1.7907,1.03605
3.63,-0.00129673,1.1743,0.848749,0.0261468,1.79073,1.03607
