time,velocity,ratio,centerX,Xmax,Xmin,Ymax
0,0,1,16,15,17,1
0.01,0.0192785,1,15.9999,14.9999,16.9999,1
0.02,0.0374459,1,15.9996,14.9996,16.9996,1
0.03,0.0545764,1.00001,15.9992,14.9992,16.9992,1
0.04,0.0707836,1.00001,15.9985,14.9986,16.9985,1
0.05,0.086083,1.00002,15.9978,14.9978,16.9977,1
0.06,0.100653,1.00003,15.9968,14.9969,16.9968,1
0.07,0.114499,1.00003,15.9958,14.9958,16.9957,1
0.08,0.127675,1.00004,15.9945,14.9946,16.9945,1
0.09,0.140237,1.00005,15.9932,14.9933,16.9932,1
0.1,0.152218,1.00006,15.9917,14.9918,16.9917,0.999998
0.11,0.16372,1.00009,15.9902,14.9903,16.9901,1.00002
0.12,0.174663,1.00012,15.9885,14.9886,16.9885,1.00004
0.13,0.185111,1.00015,15.9867,14.9869,16.9867,1.00006
0.14,0.195104,1.00018,15.9848,14.985,16.9848,1.00007
0.15,0.204691,1.00021,15.9828,14.983,16.9828,1.00008
0.16,0.213862,1.00024,15.9807,14.981,16.9806,1.00008
0.17,0.222673,1.00027,15.9785,14.9788,16.9784,1.00009
0.18,0.231101,1.00032,15.9762,14.9766,16.9761,1.00011
0.19,0.239219,1.0004,15.9739,14.9742,16.9737,1.00014
0.2,0.247026,1.00047,15.9715,14.9719,16.9712,1.00017
0.21,0.254529,1.00055,15.969,14.9694,16.9687,1.00019
0.22,0.261749,1.00063,15.9664,14.9669,16.966,1.00021
0.23,0.268564,1.00071,15.9637,14.9643,16.9633,1.00023
0.24,0.275269,1.00078,15.961,14.9616,16.9605,1.00024
0.25,0.281749,1.00088,15.9582,14.9589,16.9577,1.00028
0.26,0.288023,1.00099,15.9554,14.9561,16.9548,1.00032
0.27,0.294056,1.00109,15.9525,14.9533,16.9518,1.00035
0.28,0.299868,1.00119,15.9495,14.9504,16.9487,1.00037
0.29,0.305504,1.00127,15.9465,14.9474,16.9456,1.00039
0.3,0.310934,1.00137,15.9434,14.9444,16.9425,1.00043
0.31,0.316185,1.00148,15.9403,14.9413,16.9393,1.00047
0.32,0.321299,1.00158,15.9371,14.9382,16.936,1.00051
0.33,0.326217,1.00169,15.9338,14.935,16.9327,1.00054
0.34,0.33097,1.00177,15.9306,14.9318,16.9293,1.00056
0.35,0.335588,1.00187,15.9272,14.9285,16.926,1.0006
0.36,0.34005,1.00197,15.9239,14.9252,16.9225,1.00065
0.37,0.344416,1.00206,15.9204,14.9218,16.9191,1.00068
0.38,0.348622,1.00216,15.917,14.9184,16.9155,1.00071
0.39,0.352677,1.00224,15.9135,14.915,16.912,1.00073
0.4,0.356629,1.00235,15.9099,14.9115,16.9084,1.00078
0.41,0.360489,1.00246,15.9063,14.908,16.9047,1.00082
0.42,0.364265,1.00256,15.9027,14.9044,16.901,1.00085
0.43,0.367774,1.00264,15.8991,14.9008,16.8973,1.00086
0.44,0.371337,1.00274,15.8954,14.8972,16.8935,1.00091
0.45,0.37484,1.00285,15.8916,14.8935,16.8897,1.00095
0.46,0.378232,1.00295,15.8879,14.8899,16.8859,1.00097
0.47,0.38147,1.00302,15.8841,14.8861,16.8821,1.00098
0.48,0.384631,1.00311,15.8802,14.8824,16.8782,1.00101
0.49,0.387716,1.0032,15.8764,14.8786,16.8743,1.00105
0.5,0.390778,1.00328,15.8725,14.8747,16.8703,1.00107
0.51,0.393632,1.00333,15.8686,14.8709,16.8664,1.00108
0.52,0.396513,1.00339,15.8646,14.867,16.8624,1.0011
0.53,0.39942,1.00343,15.8606,14.863,16.8585,1.00114
0.54,0.402175,1.00349,15.8566,14.8591,16.8544,1.00116
0.55,0.404858,1.00353,15.8526,14.8551,16.8504,1.00116
0.56,0.40752,1.00359,15.8485,14.851,16.8462,1.00119
0.57,0.410102,1.00366,15.8444,14.847,16.8421,1.00122
0.58,0.412626,1.00372,15.8403,14.8429,16.8379,1.00124
0.59,0.415074,1.00375,15.8362,14.8388,16.8337,1.00123
0.6,0.417396,1.00383,15.832,14.8346,16.8295,1.00127
0.61,0.419851,1.00388,15.8279,14.8305,16.8253,1.00129
0.62,0.422151,1.00393,15.8236,14.8263,16.8211,1.0013
0.63,0.424436,1.00396,15.8194,14.8221,16.8168,1.00129
0.64,0.426665,1.00402,15.8152,14.8179,16.8125,1.00133
0.65,0.428867,1.00407,15.8109,14.8136,16.8082,1.00134
0.66,0.430977,1.00409,15.8066,14.8093,16.8038,1.00133
0.67,0.433127,1.00412,15.8023,14.805,16.7995,1.00135
0.68,0.435119,1.00415,15.7979,14.8007,16.7952,1.00137
0.69,0.437157,1.00418,15.7936,14.7964,16.7908,1.00138
0.7,0.439145,1.00419,15.7892,14.792,16.7864,1.00137
0.71,0.44109,1.00424,15.7848,14.7876,16.782,1.0014
0.72,0.443004,1.00428,15.7804,14.7832,16.7775,1.00142
0.73,0.444855,1.00431,15.7759,14.7788,16.7731,1.00142
0.74,0.446687,1.00434,15.7715,14.7744,16.7686,1.00143
0.75,0.448494,1.00439,15.767,14.7699,16.7641,1.00146
0.76,0.450261,1.00444,15.7625,14.7655,16.7596,1.00147
0.77,0.451891,1.00446,15.758,14.761,16.755,1.00145
0.78,0.453588,1.00451,15.7535,14.7565,16.7505,1.00149
0.79,0.455241,1.00457,15.7489,14.752,16.7459,1.0015
0.8,0.456803,1.00458,15.7444,14.7475,16.7413,1.0015
0.81,0.45839,1.0046,15.7398,14.7429,16.7368,1.0015
0.82,0.459967,1.00461,15.7352,14.7384,16.7323,1.00153
0.83,0.461535,1.00463,15.7306,14.7338,16.7276,1.00153
0.84,0.463082,1.00464,15.726,14.7292,16.723,1.00152
0.85,0.464613,1.00469,15.7213,14.7246,16.7183,1.00156
0.86,0.46613,1.00473,15.7167,14.7199,16.7136,1.00157
0.87,0.467622,1.00475,15.712,14.7153,16.7089,1.00156
0.88,0.469094,1.0048,15.7073,14.7106,16.7042,1.00158
0.89,0.470502,1.00484,15.7026,14.7059,16.6995,1.0016
0.9,0.471946,1.00488,15.6979,14.7012,16.6947,1.0016
0.91,0.473341,1.0049,15.6932,14.6965,16.69,1.00161
0.92,0.47473,1.00495,15.6885,14.6918,16.6852,1.00163
0.93,0.476138,1.00497,15.6837,14.6871,16.6804,1.00163
0.94,0.477422,1.00498,15.6789,14.6823,16.6756,1.00162
0.95,0.478736,1.00501,15.6742,14.6775,16.6709,1.00166
0.96,0.480062,1.00503,15.6694,14.6728,16.6661,1.00167
0.97,0.481313,1.00504,15.6646,14.668,16.6612,1.00166
0.98,0.482537,1.00509,15.6597,14.6632,16.6564,1.00169
0.99,0.483806,1.00513,15.6549,14.6583,16.6515,1.00171
1,0.485027,1.00515,15.6501,14.6535,16.6467,1.0017
1.01,0.486262,1.00519,15.6452,14.6487,16.6418,1.00172
1.02,0.487485,1.00524,15.6403,14.6438,16.6369,1.00174
1.03,0.488625,1.00527,15.6355,14.639,16.632,1.00174
1.04,0.489773,1.0053,15.6306,14.6342,16.6271,1.00174
1.05,0.490921,1.00536,15.6257,14.6293,16.6221,1.00177
1.06,0.492045,1.00538,15.6208,14.6244,16.6172,1.00177
1.07,0.493137,1.00538,15.6158,14.6195,16.6123,1.00176
1.08,0.494237,1.0054,15.6109,14.6146,16.6074,1.00179
1.09,0.495553,1.00541,15.6059,14.6097,16.6025,1.0018
1.1,0.496633,1.00541,15.601,14.6047,16.5975,1.00178
1.11,0.497733,1.00546,15.596,14.5998,16.5925,1.00181
1.12,0.498819,1.0055,15.591,14.5948,16.5875,1.00182
1.13,0.499833,1.00551,15.586,14.5898,16.5824,1.0018
1.14,0.500893,1.00555,15.581,14.5848,16.5774,1.00184
1.15,0.50195,1.00559,15.576,14.5798,16.5724,1.00185
1.16,0.502898,1.0056,15.571,14.5748,16.5673,1.00183
1.17,0.503944,1.00564,15.566,14.5698,16.5623,1.00186
1.18,0.504929,1.00568,15.5609,14.5647,16.5572,1.00187
1.19,0.505808,1.00568,15.5559,14.5597,16.5521,1.00186
1.2,0.506764,1.0057,15.5508,14.5547,16.5471,1.00188
1.21,0.507713,1.00571,15.5457,14.5496,16.542,1.00189
1.22,0.508695,1.00572,15.5407,14.5445,16.5369,1.00188
1.23,0.509621,1.00575,15.5356,14.5394,16.5318,1.0019
1.24,0.510554,1.00579,15.5305,14.5344,16.5267,1.00192
1.25,0.511433,1.0058,15.5254,14.5293,16.5215,1.00191
1.26,0.512316,1.00583,15.5202,14.5242,16.5164,1.00193
1.27,0.513211,1.00587,15.5151,14.5191,16.5112,1.00195
1.28,0.514022,1.0059,15.51,14.514,16.5061,1.00194
1.29,0.514812,1.00594,15.5048,14.5088,16.5009,1.00196
1.3,0.515808,1.00599,15.4997,14.5037,16.4957,1.00198
1.31,0.516445,1.006,15.4945,14.4986,16.4906,1.00197
1.32,0.517214,1.00601,15.4893,14.4935,16.4854,1.00198
1.33,0.517973,1.00603,15.4842,14.4883,16.4803,1.002
1.34,0.518796,1.00604,15.479,14.4832,16.4751,1.002
1.35,0.519572,1.00606,15.4738,14.478,16.4699,1.002
1.36,0.520371,1.0061,15.4686,14.4728,16.4647,1.00202
1.37,0.521115,1.00613,15.4634,14.4676,16.4594,1.00202
1.38,0.521891,1.00616,15.4582,14.4624,16.4542,1.00203
1.39,0.522689,1.00619,15.453,14.4572,16.4489,1.00205
1.4,0.523466,1.00622,15.4477,14.452,16.4437,1.00204
1.41,0.524215,1.00624,15.4425,14.4467,16.4384,1.00205
1.42,0.525001,1.00628,15.4372,14.4415,16.4331,1.00207
1.43,0.525771,1.00628,15.432,14.4362,16.4278,1.00206
1.44,0.526503,1.00628,15.4267,14.431,16.4226,1.00207
1.45,0.527227,1.00629,15.4215,14.4257,16.4173,1.00209
1.46,0.528,1.0063,15.4162,14.4204,16.4121,1.00208
1.47,0.528721,1.00631,15.4109,14.4152,16.4068,1.00209
1.48,0.529427,1.00634,15.4056,14.4099,16.4015,1.00211
1.49,0.530132,1.00635,15.4003,14.4046,16.3961,1.0021
1.5,0.530819,1.00637,15.395,14.3993,16.3908,1.00211
1.51,0.531472,1.00641,15.3897,14.394,16.3855,1.00213
1.52,0.532146,1.00642,15.3844,14.3887,16.3801,1.00212
1.53,0.532808,1.00645,15.3791,14.3834,16.3748,1.00213
1.54,0.533503,1.00649,15.3737,14.3781,16.3694,1.00215
1.55,0.534162,1.00647,15.3684,14.3728,16.3641,1.00213
1.56,0.534814,1.00647,15.363,14.3674,16.3588,1.00215
1.57,0.535521,1.00648,15.3577,14.3621,16.3535,1.00216
1.58,0.536201,1.00647,15.3523,14.3568,16.3481,1.00214
1.59,0.536881,1.0065,15.347,14.3514,16.3428,1.00216
1.6,0.537543,1.00653,15.3416,14.346,16.3374,1.00217
1.61,0.538176,1.00653,15.3362,14.3406,16.3319,1.00215
1.62,0.538844,1.00656,15.3308,14.3353,16.3265,1.00217
1.63,0.539494,1.00659,15.3254,14.3299,16.3211,1.00218
1.64,0.540108,1.00658,15.3201,14.3245,16.3157,1.00215
1.65,0.540701,1.00662,15.3146,14.3191,16.3103,1.00219
1.66,0.541355,1.00664,15.3092,14.3137,16.3048,1.00219
1.67,0.541993,1.00662,15.3038,14.3083,16.2994,1.00217
1.68,0.542581,1.00664,15.2984,14.3028,16.294,1.0022
1.69,0.543232,1.00665,15.293,14.2974,16.2886,1.0022
1.7,0.543758,1.00665,15.2875,14.292,16.2831,1.00219
1.71,0.544387,1.00668,15.2821,14.2866,16.2777,1.00222
1.72,0.544983,1.00669,15.2767,14.2811,16.2722,1.00221
1.73,0.545563,1.0067,15.2712,14.2757,16.2668,1.00221
1.74,0.546149,1.00674,15.2657,14.2702,16.2613,1.00224
1.75,0.546662,1.00676,15.2603,14.2648,16.2558,1.00223
1.76,0.54718,1.00678,15.2548,14.2594,16.2503,1.00224
1.77,0.547716,1.00683,15.2493,14.2539,16.2448,1.00226
1.78,0.548172,1.00682,15.2439,14.2484,16.2393,1.00224
1.79,0.548679,1.00683,15.2384,14.243,16.2339,1.00226
1.8,0.54921,1.00684,15.2329,14.2375,16.2285,1.00227
1.81,0.549734,1.00684,15.2274,14.2321,16.223,1.00225
1.82,0.550352,1.00687,15.2219,14.2266,16.2174,1.00228
1.83,0.55088,1.0069,15.2164,14.2211,16.2119,1.00229
1.84,0.551362,1.00691,15.2109,14.2156,16.2063,1.00226
1.85,0.551943,1.00695,15.2054,14.21,16.2008,1.0023
1.86,0.552483,1.00698,15.1998,14.2045,16.1952,1.0023
1.87,0.552998,1.00698,15.1943,14.199,16.1897,1.00229
1.88,0.553547,1.00703,15.1888,14.1935,16.1841,1.00232
1.89,0.554053,1.00704,15.1832,14.1879,16.1786,1.00232
1.9,0.554572,1.00704,15.1777,14.1824,16.173,1.00231
1.91,0.555122,1.00705,15.1722,14.1769,16.1675,1.00234
1.92,0.555694,1.00706,15.1666,14.1713,16.1619,1.00233
1.93,0.55622,1.00707,15.161,14.1658,16.1564,1.00234
1.94,0.556728,1.0071,15.1555,14.1602,16.1508,1.00236
1.95,0.557146,1.00711,15.1499,14.1546,16.1452,1.00235
1.96,0.557734,1.00714,15.1443,14.1491,16.1396,1.00236
1.97,0.558286,1.00717,15.1388,14.1435,16.134,1.00238
1.98,0.558692,1.00717,15.1332,14.138,16.1284,1.00236
1.99,0.559172,1.00721,15.1276,14.1324,16.1228,1.00239
2,0.559651,1.00724,15.122,14.1268,16.1172,1.00239
2.01,0.56009,1.00721,15.1164,14.1212,16.1116,1.00237
2.02,0.560541,1.00722,15.1108,14.1157,16.1061,1.0024
2.03,0.561053,1.00722,15.1052,14.1101,16.1005,1.0024
2.04,0.56153,1.00722,15.0996,14.1045,16.0949,1.00239
2.05,0.562045,1.00726,15.094,14.0989,16.0892,1.00241
2.06,0.562481,1.00727,15.0883,14.0932,16.0836,1.0024
2.07,0.56296,1.00728,15.0827,14.0876,16.0779,1.0024
2.08,0.563466,1.00731,15.0771,14.082,16.0723,1.00242
2.09,0.563901,1.00731,15.0714,14.0764,16.0666,1.0024
2.1,0.564187,1.00734,15.0658,14.0707,16.061,1.00242
2.11,0.5647,1.00737,15.0602,14.0651,16.0553,1.00243
2.12,0.56517,1.00734,15.0545,14.0594,16.0496,1.0024
2.13,0.565578,1.00736,15.0488,14.0538,16.044,1.00243
2.14,0.566031,1.00736,15.0432,14.0481,16.0383,1.00243
2.15,0.566447,1.00736,15.0375,14.0425,16.0327,1.00242
2.16,0.566871,1.00739,15.0319,14.0368,16.027,1.00245
2.17,0.567282,1.00739,15.0262,14.0311,16.0213,1.00244
2.18,0.567705,1.0074,15.0205,14.0255,16.0156,1.00244
2.19,0.568128,1.00743,15.0148,14.0198,16.0099,1.00246
2.2,0.568456,1.00744,15.0092,14.0142,16.0042,1.00245
2.21,0.569003,1.00747,15.0035,14.0085,15.9985,1.00246
2.22,0.56932,1.00751,14.9978,14.0028,15.9928,1.00247
2.23,0.569373,1.00748,14.9921,13.9971,15.9871,1.00245
2.24,0.569693,1.00751,14.9864,13.9915,15.9815,1.00248
2.25,0.570065,1.00751,14.9807,13.9858,15.9758,1.00248
2.26,0.570468,1.00752,14.975,13.9801,15.9701,1.00247
2.27,0.570855,1.00756,14.9693,13.9744,15.9644,1.0025
2.28,0.571223,1.00757,14.9636,13.9687,15.9586,1.00249
2.29,0.571593,1.00759,14.9579,13.963,15.9529,1.0025
2.3,0.572003,1.00762,14.9521,13.9573,15.9472,1.00251
2.31,0.572345,1.00763,14.9464,13.9516,15.9414,1.0025
2.32,0.572741,1.00766,14.9407,13.9459,15.9357,1.00252
2.33,0.573142,1.00768,14.935,13.9401,15.9299,1.00253
2.34,0.573546,1.00766,14.9292,13.9344,15.9242,1.00251
2.35,0.573898,1.00768,14.9235,13.9287,15.9185,1.00254
2.36,0.574307,1.00768,14.9178,13.9229,15.9127,1.00254
2.37,0.574663,1.00768,14.912,13.9172,15.907,1.00253
2.38,0.575013,1.00771,14.9063,13.9114,15.9012,1.00255
2.39,0.575371,1.00771,14.9005,13.9057,15.8954,1.00254
2.4,0.57578,1.00773,14.8948,13.8999,15.8897,1.00256
2.41,0.57615,1.00775,14.889,13.8942,15.8839,1.00257
2.42,0.576432,1.00775,14.8832,13.8885,15.8781,1.00255
2.43,0.576789,1.0078,14.8775,13.8827,15.8723,1.00258
2.44,0.577115,1.00781,14.8717,13.8769,15.8666,1.00258
2.45,0.577333,1.00778,14.8659,13.8712,15.8608,1.00256
2.46,0.577681,1.00779,14.8602,13.8654,15.8551,1.00259
2.47,0.57806,1.00779,14.8544,13.8597,15.8493,1.00258
2.48,0.57845,1.0078,14.8486,13.8539,15.8435,1.00258
2.49,0.578807,1.00782,14.8428,13.8481,15.8377,1.0026
2.5,0.579173,1.00782,14.837,13.8423,15.8319,1.00258
2.51,0.57958,1.00785,14.8312,13.8365,15.8261,1.0026
2.52,0.579983,1.00787,14.8254,13.8307,15.8203,1.0026
2.53,0.580252,1.00786,14.8196,13.8249,15.8144,1.00258
2.54,0.58065,1.0079,14.8138,13.8191,15.8086,1.00261
2.55,0.581049,1.0079,14.808,13.8133,15.8028,1.0026
2.56,0.581431,1.00789,14.8022,13.8075,15.797,1.0026
2.57,0.581767,1.0079,14.7964,13.8017,15.7912,1.00262
2.58,0.582141,1.00789,14.7906,13.7959,15.7854,1.0026
2.59,0.582508,1.00791,14.7848,13.79,15.7795,1.00261
2.6,0.582809,1.00792,14.7789,13.7842,15.7737,1.00262
2.61,0.583153,1.00791,14.7731,13.7784,15.7678,1.0026
2.62,0.583515,1.00795,14.7673,13.7726,15.762,1.00263
2.63,0.583829,1.00797,14.7614,13.7668,15.7562,1.00263
2.64,0.584088,1.00797,14.7556,13.7609,15.7503,1.00262
2.65,0.584396,1.00802,14.7498,13.7551,15.7444,1.00265
2.66,0.584641,1.008,14.7439,13.7493,15.7386,1.00263
2.67,0.584907,1.008,14.7381,13.7435,15.7328,1.00264
2.68,0.585208,1.00801,14.7322,13.7376,15.727,1.00265
2.69,0.585537,1.008,14.7264,13.7318,15.7211,1.00263
2.7,0.585845,1.00803,14.7205,13.7259,15.7153,1.00266
2.71,0.586179,1.00805,14.7146,13.7201,15.7094,1.00266
2.72,0.58648,1.00806,14.7088,13.7142,15.7035,1.00265
2.73,0.586806,1.00809,14.7029,13.7084,15.6976,1.00267
2.74,0.587059,1.0081,14.697,13.7025,15.6917,1.00266
2.75,0.587407,1.00812,14.6912,13.6966,15.6858,1.00268
2.76,0.587747,1.00815,14.6853,13.6907,15.6799,1.00269
2.77,0.588098,1.00813,14.6794,13.6849,15.674,1.00266
2.78,0.588397,1.00815,14.6735,13.679,15.6682,1.0027
2.79,0.588733,1.00815,14.6677,13.6731,15.6623,1.00269
2.8,0.589039,1.00815,14.6618,13.6672,15.6564,1.00269
2.81,0.589306,1.00818,14.6559,13.6613,15.6505,1.00271
2.82,0.589612,1.00818,14.65,13.6554,15.6446,1.0027
2.83,0.589856,1.0082,14.6441,13.6495,15.6387,1.00271
2.84,0.590185,1.00823,14.6382,13.6437,15.6327,1.00272
2.85,0.590368,1.00823,14.6323,13.6378,15.6268,1.0027
2.86,0.590652,1.00827,14.6264,13.6319,15.6209,1.00273
2.87,0.590956,1.00827,14.6205,13.626,15.615,1.00273
2.88,0.591214,1.00825,14.6146,13.6201,15.6091,1.00273
2.89,0.591503,1.00826,14.6086,13.6142,15.6033,1.00274
2.9,0.591782,1.00825,14.6027,13.6083,15.5973,1.00272
2.91,0.592064,1.00827,14.5968,13.6024,15.5914,1.00274
2.92,0.592328,1.00829,14.5909,13.5965,15.5855,1.00274
2.93,0.592577,1.00829,14.585,13.5905,15.5795,1.00272
2.94,0.592429,1.00832,14.579,13.5846,15.5736,1.00275
2.95,0.592576,1.00833,14.5731,13.5787,15.5676,1.00274
2.96,0.592868,1.00833,14.5672,13.5728,15.5617,1.00274
2.97,0.593199,1.00836,14.5613,13.5668,15.5557,1.00275
2.98,0.593298,1.00833,14.5553,13.5609,15.5498,1.00273
2.99,0.593584,1.00834,14.5494,13.555,15.5439,1.00275
3,0.593911,1.00834,14.5435,13.549,15.5379,1.00275
3.01,0.594195,1.00833,14.5375,13.5431,15.532,1.00274
3.02,0.59449,1.00835,14.5316,13.5371,15.526,1.00276
3.03,0.594748,1.00835,14.5256,13.5312,15.5201,1.00275
3.04,0.595019,1.00836,14.5197,13.5252,15.5141,1.00276
3.05,0.595298,1.00838,14.5137,13.5193,15.5082,1.00277
3.06,0.595488,1.00838,14.5078,13.5134,15.5022,1.00275
3.07,0.5959,1.00843,14.5018,13.5074,15.4962,1.00278
3.08,0.596084,1.00843,14.4959,13.5015,15.4903,1.00277
3.09,0.59612,1.00841,14.4899,13.4955,15.4844,1.00277
3.1,0.596306,1.00843,14.4839,13.4896,15.4784,1.00279
3.11,0.596571,1.00842,14.478,13.4837,15.4725,1.00277
3.12,0.596842,1.00844,14.472,13.4777,15.4665,1.00279
3.13,0.597103,1.00847,14.466,13.4718,15.4605,1.0028
3.14,0.597325,1.00847,14.4601,13.4658,15.4545,1.00278
3.15,0.597598,1.0085,14.4541,13.4598,15.4485,1.00281
3.16,0.597848,1.00851,14.4481,13.4538,15.4425,1.0028
3.17,0.598107,1.00852,14.4421,13.4479,15.4365,1.00281
3.18,0.5984,1.00855,14.4361,13.4419,15.4305,1.00282
3.19,0.598656,1.00853,14.4302,13.4359,15.4245,1.0028
3.2,0.598888,1.00854,14.4242,13.4299,15.4186,1.00282
3.21,0.599166,1.00854,14.4182,13.4239,15.4126,1.00282
3.22,0.599407,1.00854,14.4122,13.4179,15.4066,1.00282
3.23,0.599632,1.00856,14.4062,13.4119,15.4006,1.00284
3.24,0.599852,1.00857,14.4002,13.4059,15.3945,1.00282
3.25,0.600122,1.00858,14.3942,13.3999,15.3885,1.00284
3.26,0.60039,1.00861,14.3882,13.3939,15.3825,1.00285
3.27,0.600551,1.0086,14.3822,13.388,15.3765,1.00283
3.28,0.600772,1.00865,14.3762,13.382,15.3705,1.00286
3.29,0.600989,1.00864,14.3702,13.376,15.3645,1.00285
3.3,0.601202,1.00862,14.3642,13.37,15.3585,1.00285
3.31,0.601341,1.00863,14.3582,13.364,15.3525,1.00287
3.32,0.60164,1.00861,14.3521,13.358,15.3465,1.00284
3.33,0.601908,1.00864,14.3461,13.3519,15.3405,1.00287
3.34,0.602162,1.00866,14.3401,13.3459,15.3344,1.00287
3.35,0.602293,1.00866,14.3341,13.3399,15.3284,1.00286
3.36,0.602569,1.00869,14.3281,13.3339,15.3223,1.00288
3.37,0.602717,1.00869,14.322,13.3279,15.3163,1.00286
3.38,0.602984,1.00871,14.316,13.3218,15.3103,1.00287
3.39,0.603039,1.00873,14.31,13.3158,15.3042,1.00288
3.4,0.603277,1.0087,14.3039,13.3097,15.2982,1.00286
3.41,0.60351,1.00871,14.2979,13.3037,15.2922,1.00288
3.42,0.603787,1.00871,14.2919,13.2977,15.2861,1.00287
3.43,0.604041,1.00871,14.2858,13.2916,15.2801,1.00288
3.44,0.604264,1.00873,14.2798,13.2856,15.274,1.00289
3.45,0.604478,1.00872,14.2738,13.2796,15.268,1.00287
3.46,0.60473,1.00875,14.2677,13.2735,15.2619,1.0029
3.47,0.604943,1.00876,14.2617,13.2675,15.2559,1.0029
3.48,0.605098,1.00877,14.2556,13.2615,15.2498,1.00289
3.49,0.6053,1.00882,14.2496,13.2554,15.2437,1.00291
3.5,0.605438,1.00878,14.2435,13.2494,15.2377,1.00289
3.51,0.605593,1.00879,14.2375,13.2434,15.2317,1.00291
3.52,0.605816,1.00879,14.2314,13.2373,15.2257,1.00291
3.53,0.606022,1.00879,14.2253,13.2313,15.2196,1.0029
3.54,0.606242,1.00882,14.2193,13.2252,15.2135,1.00292
3.55,0.606454,1.00883,14.2132,13.2192,15.2074,1.00291
3.56,0.60668,1.00884,14.2072,13.2131,15.2013,1.00292
3.57,0.606914,1.00887,14.2011,13.207,15.1952,1.00293
3.58,0.607109,1.00886,14.195,13.201,15.1892,1.00291
3.59,0.607384,1.0089,14.1889,13.1949,15.1831,1.00294
3.6,0.607681,1.0089,14.1829,13.1888,15.177,1.00293
3.61,0.607922,1.00889,14.1768,13.1827,15.1709,1.00293
3.62,0.608098,1.0089,14.1707,13.1766,15.1648,1.00295
3.63,0.608343,1.00889,14.1646,13.1706,15.1587,1.00293
3.64,0.608562,1.00891,14.1585,13.1645,15.1527,1.00295
3.65,0.608781,1.00892,14.1525,13.1584,15.1465,1.00295
3.66,0.609037,1.00892,14.1464,13.1523,15.1405,1.00295
3.67,0.609214,1.00895,14.1403,13.1462,15.1344,1.00297
3.68,0.609339,1.00895,14.1342,13.1402,15.1283,1.00295
3.69,0.609496,1.00898,14.1281,13.1341,15.1222,1.00297
3.7,0.609683,1.00899,14.122,13.128,15.116,1.00297
3.71,0.609839,1.00896,14.1159,13.1219,15.11,1.00295
3.72,0.609994,1.00897,14.1098,13.1158,15.1039,1.00298
3.73,0.61022,1.00896,14.1037,13.1097,15.0978,1.00296
3.74,0.610422,1.00896,14.0976,13.1036,15.0917,1.00297
3.75,0.61064,1.00898,14.0915,13.0975,15.0856,1.00297
3.76,0.610807,1.00897,14.0854,13.0914,15.0795,1.00295
