time,velocity,ratio,centerX,Xmax,Xmin,Ymax
0,0,1,1.5,0.5,2.5,1
0.01,0.0172324,1.00002,1.49992,0.499935,2.49991,1
0.02,0.0333877,1.00007,1.49967,0.499743,2.49964,1.00001
0.03,0.0485803,1.00015,1.49926,0.499433,2.49919,1.00003
0.04,0.0628698,1.00027,1.49871,0.499013,2.49859,1.00005
0.05,0.0763121,1.00041,1.49802,0.498491,2.49784,1.00008
0.06,0.0890703,1.00058,1.4972,0.497874,2.49695,1.00011
0.07,0.101133,1.00077,1.49625,0.497167,2.49593,1.00015
0.08,0.112399,1.001,1.49519,0.496389,2.49479,1.0002
0.09,0.123243,1.00125,1.49401,0.495538,2.49353,1.00025
0.1,0.133377,1.00153,1.49273,0.49462,2.49217,1.00031
0.11,0.143003,1.00185,1.49136,0.493636,2.49071,1.00038
0.12,0.152304,1.0022,1.48988,0.492594,2.48915,1.00047
0.13,0.160969,1.00257,1.48832,0.491494,2.4875,1.00057
0.14,0.169221,1.00296,1.48667,0.490337,2.48577,1.00067
0.15,0.177023,1.00336,1.48495,0.489127,2.48397,1.00077
0.16,0.184666,1.0038,1.48314,0.487871,2.48206,1.00088
0.17,0.191752,1.00427,1.48126,0.486569,2.48004,1.00099
0.18,0.198665,1.00477,1.47931,0.485224,2.47793,1.00111
0.19,0.205089,1.00532,1.4773,0.483837,2.47573,1.00124
0.2,0.211371,1.0059,1.47522,0.482401,2.47345,1.0014
0.21,0.217199,1.00651,1.47308,0.480922,2.47109,1.00156
0.22,0.222751,1.00712,1.47088,0.479404,2.46867,1.00172
0.23,0.228183,1.00777,1.46863,0.477852,2.46617,1.00188
0.24,0.233173,1.00845,1.46632,0.476271,2.46358,1.00205
0.25,0.237952,1.00915,1.46397,0.474661,2.46091,1.00221
0.26,0.242658,1.00992,1.46157,0.473026,2.45817,1.00242
0.27,0.247011,1.01071,1.45913,0.471369,2.45539,1.00263
0.28,0.251087,1.0115,1.45664,0.46969,2.45257,1.00284
0.29,0.255007,1.01232,1.45411,0.467991,2.44969,1.00306
0.3,0.258763,1.01316,1.45154,0.466258,2.44672,1.00327
0.31,0.262499,1.01404,1.44894,0.4645,2.44371,1.0035
0.32,0.265823,1.01496,1.4463,0.462722,2.44065,1.00376
0.33,0.269015,1.01587,1.44363,0.460926,2.43757,1.00401
0.34,0.27192,1.01682,1.44092,0.459115,2.43443,1.00427
0.35,0.274796,1.0178,1.43819,0.45729,2.4312,1.00453
0.36,0.277678,1.01879,1.43543,0.455452,2.42795,1.00479
0.37,0.280449,1.01983,1.43264,0.4536,2.4247,1.00509
0.38,0.283054,1.02084,1.42983,0.451727,2.42146,1.00539
0.39,0.285521,1.02184,1.42698,0.449816,2.41818,1.00568
0.4,0.287828,1.02287,1.42412,0.447878,2.41484,1.00598
0.41,0.289814,1.02392,1.42123,0.44592,2.41145,1.00628
0.42,0.291867,1.02502,1.41833,0.443944,2.40803,1.00661
0.43,0.293756,1.02611,1.4154,0.441953,2.40461,1.00695
0.44,0.295578,1.02721,1.41246,0.439948,2.40113,1.00728
0.45,0.297037,1.02834,1.40949,0.437935,2.3976,1.0076
0.46,0.298696,1.0295,1.40652,0.435937,2.39404,1.00794
0.47,0.300233,1.03069,1.40352,0.433925,2.39049,1.00831
0.48,0.30166,1.03187,1.40052,0.431903,2.38692,1.00867
0.49,0.302887,1.03308,1.39749,0.42988,2.3833,1.00902
0.5,0.304136,1.0343,1.39446,0.427842,2.37965,1.00937
0.51,0.305217,1.03553,1.39142,0.425797,2.376,1.00975
0.52,0.306289,1.03679,1.38836,0.423758,2.37234,1.01014
0.53,0.307051,1.0381,1.3853,0.421722,2.36859,1.01052
0.54,0.308061,1.03938,1.38222,0.419667,2.36487,1.0109
0.55,0.308816,1.04061,1.37914,0.417594,2.3612,1.01127
0.56,0.309683,1.04185,1.37605,0.415515,2.35759,1.01168
0.57,0.310473,1.04312,1.37295,0.413437,2.35393,1.01208
0.58,0.311058,1.04441,1.36984,0.411364,2.35022,1.01248
0.59,0.311768,1.04573,1.36673,0.409298,2.34647,1.01287
0.6,0.312408,1.04704,1.36361,0.407236,2.34273,1.01327
0.61,0.312801,1.04841,1.36048,0.405177,2.33895,1.01369
0.62,0.313303,1.0498,1.35735,0.403099,2.33512,1.01411
0.63,0.313535,1.05119,1.35422,0.40102,2.33126,1.01453
0.64,0.313933,1.05257,1.35108,0.398947,2.32743,1.01493
0.65,0.314254,1.05398,1.34794,0.396883,2.32358,1.01535
0.66,0.314301,1.05544,1.3448,0.39483,2.31969,1.01579
0.67,0.314491,1.0569,1.34166,0.392787,2.31578,1.01621
0.68,0.314306,1.05834,1.33852,0.390754,2.31192,1.01663
0.69,0.314292,1.05979,1.33537,0.388713,2.30801,1.01703
0.7,0.314327,1.06129,1.33223,0.386642,2.30407,1.01747
0.71,0.314335,1.06276,1.32909,0.38455,2.30015,1.01791
0.72,0.314099,1.06418,1.32595,0.382443,2.2963,1.01834
0.73,0.314021,1.06558,1.32281,0.380323,2.29246,1.01876
0.74,0.31393,1.06699,1.31967,0.378195,2.28858,1.01918
0.75,0.313639,1.06845,1.31653,0.376062,2.28468,1.01963
0.76,0.313486,1.06991,1.3134,0.373954,2.2808,1.02008
0.77,0.313267,1.07138,1.31027,0.371896,2.27694,1.02051
0.78,0.312812,1.07285,1.30714,0.369824,2.27303,1.02093
0.79,0.312441,1.07436,1.30401,0.367764,2.26912,1.02137
0.8,0.312109,1.07587,1.30089,0.365703,2.26524,1.02182
0.81,0.311544,1.07736,1.29777,0.363644,2.26137,1.02226
0.82,0.311238,1.07887,1.29466,0.361596,2.25747,1.0227
0.83,0.310609,1.08036,1.29155,0.359548,2.25357,1.02312
0.84,0.310055,1.08187,1.28845,0.357496,2.24971,1.02357
0.85,0.309543,1.0834,1.28535,0.355436,2.24583,1.02402
0.86,0.308826,1.08494,1.28226,0.353383,2.24191,1.02447
0.87,0.308263,1.08643,1.27917,0.351336,2.23806,1.0249
0.88,0.307288,1.08788,1.2761,0.349313,2.23429,1.02532
0.89,0.306767,1.08936,1.27303,0.347307,2.23058,1.02578
0.9,0.306033,1.09086,1.26996,0.345319,2.22682,1.02623
0.91,0.305469,1.09238,1.26691,0.343347,2.22304,1.02667
0.92,0.304883,1.09388,1.26386,0.341366,2.21926,1.0271
0.93,0.304046,1.09536,1.26081,0.339383,2.21551,1.02752
0.94,0.303451,1.09692,1.25778,0.33741,2.21171,1.02798
0.95,0.302567,1.09849,1.25475,0.33545,2.20789,1.02843
0.96,0.301893,1.10004,1.25173,0.333504,2.2041,1.02887
0.97,0.301023,1.10158,1.24872,0.331572,2.20033,1.02929
0.98,0.300311,1.10312,1.24571,0.329654,2.19655,1.02971
0.99,0.299037,1.10473,1.24272,0.327749,2.19276,1.03016
1,0.298274,1.1063,1.23973,0.325828,2.18899,1.03061
1.01,0.297283,1.10783,1.23675,0.323889,2.18526,1.03104
1.02,0.296463,1.10937,1.23379,0.321946,2.18148,1.03146
1.03,0.295459,1.11089,1.23083,0.320006,2.17772,1.03186
1.04,0.294427,1.11244,1.22788,0.318071,2.174,1.03231
1.05,0.293611,1.11394,1.22494,0.316144,2.17035,1.03274
1.06,0.292579,1.11543,1.22201,0.314219,2.1667,1.03316
1.07,0.291728,1.11692,1.21909,0.312301,2.16304,1.03357
1.08,0.290668,1.11843,1.21618,0.31043,2.15939,1.03397
1.09,0.289811,1.11996,1.21328,0.308541,2.15576,1.0344
1.1,0.288751,1.12148,1.21039,0.306673,2.15216,1.03483
1.11,0.287794,1.12299,1.2075,0.3048,2.14854,1.03525
1.12,0.286693,1.1245,1.20463,0.302931,2.14492,1.03566
1.13,0.285537,1.12599,1.20177,0.301085,2.14133,1.03605
1.14,0.284652,1.12751,1.19892,0.299256,2.13778,1.03647
1.15,0.283468,1.12904,1.19608,0.297438,2.13422,1.0369
1.16,0.282535,1.13056,1.19325,0.295623,2.13067,1.03731
1.17,0.281311,1.13205,1.19043,0.293799,2.12714,1.03771
1.18,0.280336,1.1335,1.18763,0.291984,2.12365,1.0381
1.19,0.279299,1.13502,1.18483,0.290184,2.12013,1.03851
1.2,0.278046,1.13654,1.18204,0.288396,2.11663,1.03893
1.21,0.277025,1.13802,1.17927,0.286608,2.11318,1.03934
1.22,0.275927,1.13945,1.1765,0.284819,2.1098,1.03973
1.23,0.274707,1.14084,1.17375,0.283037,2.10646,1.04012
1.24,0.273629,1.14225,1.17101,0.281268,2.10311,1.0405
1.25,0.272528,1.1437,1.16828,0.2795,2.09975,1.04091
1.26,0.27128,1.14514,1.16556,0.27773,2.0964,1.04131
1.27,0.270222,1.14656,1.16286,0.275973,2.09307,1.0417
1.28,0.268893,1.14797,1.16016,0.274235,2.08975,1.04208
1.29,0.267737,1.1494,1.15748,0.272517,2.08642,1.04245
1.3,0.266603,1.15086,1.15481,0.270818,2.08309,1.04284
1.31,0.26531,1.15234,1.15215,0.269138,2.07979,1.04324
1.32,0.264184,1.15379,1.1495,0.267477,2.07652,1.04362
1.33,0.26303,1.15524,1.14687,0.265835,2.07325,1.044
1.34,0.261714,1.15668,1.14424,0.264195,2.06998,1.04436
1.35,0.260573,1.1581,1.14163,0.262533,2.06673,1.04472
1.36,0.259194,1.15953,1.13904,0.260859,2.06351,1.04511
1.37,0.258085,1.16092,1.13645,0.259179,2.06032,1.0455
1.38,0.256689,1.16233,1.13388,0.257495,2.05711,1.04587
1.39,0.255507,1.1637,1.13132,0.255813,2.05391,1.04623
1.4,0.25433,1.16505,1.12877,0.254133,2.05075,1.04658
1.41,0.25294,1.16639,1.12624,0.252458,2.04764,1.04694
1.42,0.251815,1.16772,1.12371,0.250792,2.04456,1.04731
1.43,0.25039,1.16907,1.1212,0.249165,2.04149,1.04768
1.44,0.249228,1.17046,1.11871,0.247609,2.03842,1.04803
1.45,0.247792,1.17183,1.11622,0.246059,2.03536,1.04837
1.46,0.246582,1.17318,1.11375,0.244524,2.03232,1.04871
1.47,0.245374,1.17453,1.11129,0.242977,2.02932,1.04905
1.48,0.243954,1.17589,1.10885,0.241435,2.02631,1.04941
1.49,0.24274,1.17726,1.10642,0.239917,2.02332,1.04976
1.5,0.241271,1.17862,1.104,0.238413,2.02034,1.0501
1.51,0.24002,1.17996,1.10159,0.236917,2.01738,1.05043
1.52,0.238579,1.18127,1.0992,0.235433,2.01445,1.05075
1.53,0.237351,1.18261,1.09682,0.233966,2.01154,1.05109
1.54,0.236067,1.18396,1.09446,0.232498,2.00863,1.05144
1.55,0.234655,1.1853,1.0921,0.231035,2.00574,1.05178
1.56,0.233444,1.18662,1.08976,0.22958,2.00288,1.05211
1.57,0.232009,1.18791,1.08744,0.228137,2.00004,1.05243
1.58,0.230863,1.1892,1.08512,0.226704,1.99721,1.05274
1.59,0.22937,1.19052,1.08282,0.225285,1.99436,1.05306
1.6,0.22815,1.19185,1.08054,0.223882,1.99156,1.0534
1.61,0.226925,1.19315,1.07826,0.222494,1.9888,1.05373
1.62,0.225481,1.19442,1.076,0.221121,1.98609,1.05405
1.63,0.224201,1.19566,1.07375,0.219763,1.98342,1.05437
1.64,0.222538,1.1969,1.07152,0.218419,1.98076,1.05467
1.65,0.221337,1.19813,1.0693,0.217073,1.9781,1.05497
1.66,0.219601,1.19939,1.0671,0.215727,1.97544,1.05529
1.67,0.218443,1.20065,1.06491,0.21439,1.9728,1.05562
1.68,0.217293,1.2019,1.06273,0.213064,1.97017,1.05593
1.69,0.216088,1.20314,1.06057,0.211751,1.96756,1.05624
1.7,0.214913,1.20437,1.05841,0.210452,1.96495,1.05653
1.71,0.21369,1.2056,1.05627,0.209168,1.96235,1.05682
1.72,0.212451,1.20683,1.05414,0.207896,1.95976,1.0571
1.73,0.211266,1.2081,1.05202,0.206638,1.95718,1.05741
1.74,0.210009,1.20935,1.04992,0.205394,1.95462,1.05771
1.75,0.208738,1.21058,1.04782,0.204164,1.95209,1.05801
1.76,0.207542,1.21182,1.04574,0.202948,1.94957,1.05829
1.77,0.206284,1.21303,1.04367,0.201728,1.94705,1.05857
1.78,0.205011,1.21422,1.04162,0.2005,1.94455,1.05884
1.79,0.203735,1.2154,1.03958,0.19927,1.94207,1.0591
1.8,0.202542,1.2166,1.03755,0.198043,1.93961,1.0594
1.81,0.201267,1.21777,1.03553,0.196821,1.93718,1.05968
1.82,0.19999,1.21895,1.03352,0.195607,1.93475,1.05996
1.83,0.198701,1.22011,1.03153,0.194402,1.93232,1.06023
1.84,0.197472,1.22127,1.02955,0.193208,1.92992,1.06049
1.85,0.196253,1.2224,1.02758,0.192025,1.92754,1.06075
1.86,0.195076,1.22352,1.02563,0.190855,1.92518,1.061
1.87,0.193893,1.22467,1.02368,0.189697,1.92286,1.06127
1.88,0.192676,1.2258,1.02175,0.188552,1.92055,1.06155
1.89,0.191474,1.22693,1.01983,0.187421,1.91826,1.06181
1.9,0.19027,1.22808,1.01792,0.186342,1.91598,1.06207
1.91,0.189037,1.22921,1.01603,0.185249,1.91371,1.06232
1.92,0.187805,1.23033,1.01414,0.184176,1.91145,1.06256
1.93,0.1866,1.23144,1.01227,0.183101,1.90921,1.0628
1.94,0.185408,1.23254,1.01041,0.182023,1.90699,1.06304
1.95,0.184198,1.23366,1.00856,0.180962,1.90479,1.06331
1.96,0.182997,1.23477,1.00673,0.179917,1.9026,1.06356
1.97,0.181786,1.23588,1.00491,0.178881,1.90042,1.06381
1.98,0.18058,1.23698,1.00309,0.177852,1.89826,1.06405
1.99,0.179364,1.23806,1.0013,0.17683,1.89611,1.06428
2,0.178137,1.23914,0.999509,0.175824,1.89397,1.06451
2.01,0.176916,1.2402,0.997734,0.174833,1.89186,1.06473
2.02,0.175687,1.24128,0.995972,0.173856,1.88977,1.06497
2.03,0.174481,1.24238,0.994222,0.172889,1.88769,1.06521
2.04,0.173266,1.24346,0.992484,0.171933,1.88562,1.06545
2.05,0.172058,1.24454,0.990758,0.170981,1.88356,1.06569
2.06,0.170876,1.24559,0.989044,0.170025,1.88152,1.06591
2.07,0.169686,1.24663,0.987342,0.169073,1.8795,1.06613
2.08,0.168501,1.24765,0.985652,0.168128,1.87749,1.06635
2.09,0.167329,1.24866,0.983973,0.167193,1.87551,1.06655
2.1,0.166106,1.24968,0.982307,0.166266,1.87353,1.06677
2.11,0.164955,1.25073,0.980652,0.165349,1.87155,1.067
2.12,0.163797,1.25177,0.979009,0.16444,1.8696,1.06723
2.13,0.162641,1.25279,0.977378,0.163542,1.86767,1.06745
2.14,0.161485,1.2538,0.975758,0.162653,1.86576,1.06767
2.15,0.160276,1.25479,0.97415,0.161775,1.86387,1.06788
2.16,0.159115,1.25577,0.972553,0.160908,1.862,1.06809
2.17,0.157968,1.25674,0.970968,0.160053,1.86015,1.06829
2.18,0.156802,1.25769,0.969395,0.159209,1.85832,1.06848
2.19,0.155584,1.25868,0.967834,0.158376,1.8565,1.06869
2.2,0.154469,1.25967,0.966284,0.157553,1.85468,1.06891
2.21,0.153349,1.26066,0.964746,0.156741,1.85287,1.06913
2.22,0.152223,1.26165,0.963219,0.155938,1.85108,1.06933
2.23,0.151104,1.26261,0.961703,0.155133,1.84929,1.06953
2.24,0.149928,1.26357,0.960198,0.15433,1.84752,1.06973
2.25,0.148822,1.26451,0.958705,0.15353,1.84576,1.06992
2.26,0.147721,1.26544,0.957223,0.152735,1.84402,1.07011
2.27,0.146621,1.26636,0.955752,0.151948,1.84229,1.07029
2.28,0.145443,1.26729,0.954292,0.151168,1.84056,1.07048
2.29,0.144405,1.26824,0.952843,0.150397,1.83885,1.07068
2.3,0.143343,1.26919,0.951405,0.149634,1.83715,1.07088
2.31,0.142284,1.27012,0.949978,0.148879,1.83546,1.07108
2.32,0.141181,1.27104,0.948561,0.148134,1.83379,1.07127
2.33,0.140141,1.27196,0.947155,0.147397,1.83213,1.07146
2.34,0.139088,1.27287,0.94576,0.146669,1.83048,1.07164
2.35,0.137987,1.27377,0.944375,0.145952,1.82885,1.07181
2.36,0.136951,1.27466,0.943001,0.145243,1.82723,1.07198
2.37,0.135934,1.27555,0.941637,0.144544,1.82563,1.07215
2.38,0.134829,1.27644,0.940284,0.143854,1.82403,1.07232
2.39,0.133816,1.27735,0.938942,0.143173,1.82245,1.07251
2.4,0.132791,1.27826,0.937609,0.1425,1.82087,1.0727
2.41,0.131727,1.27915,0.936287,0.141837,1.81931,1.07287
2.42,0.130738,1.28004,0.934975,0.141183,1.81777,1.07305
2.43,0.129746,1.28092,0.933674,0.140536,1.81624,1.07322
2.44,0.128683,1.28178,0.932382,0.13989,1.81472,1.07338
2.45,0.127714,1.28263,0.931101,0.139238,1.81322,1.07355
2.46,0.126745,1.28346,0.929829,0.138584,1.81172,1.0737
2.47,0.125776,1.28428,0.928567,0.137928,1.81023,1.07386
2.48,0.124747,1.28509,0.927315,0.137273,1.80876,1.07401
2.49,0.123796,1.28591,0.926073,0.136621,1.8073,1.07417
2.5,0.122837,1.28672,0.924841,0.135971,1.80585,1.07434
2.51,0.121823,1.28753,0.923618,0.135326,1.80442,1.0745
2.52,0.120895,1.28832,0.922405,0.134685,1.803,1.07466
2.53,0.119978,1.28911,0.921201,0.134049,1.80159,1.07482
2.54,0.119069,1.28988,0.920006,0.133417,1.8002,1.07497
2.55,0.118088,1.29064,0.918821,0.13279,1.79882,1.07512
2.56,0.117184,1.29139,0.917646,0.13217,1.79746,1.07527
2.57,0.116255,1.29213,0.916479,0.131555,1.79611,1.07541
2.58,0.115347,1.29287,0.915321,0.130945,1.79476,1.07555
2.59,0.114402,1.2936,0.914173,0.130343,1.79343,1.07568
2.6,0.113488,1.29432,0.913035,0.129745,1.79211,1.07582
2.61,0.112555,1.29507,0.911905,0.129153,1.79079,1.07597
2.62,0.111701,1.2958,0.910784,0.128567,1.78949,1.07612
2.63,0.11078,1.29653,0.909672,0.127984,1.7882,1.07626
2.64,0.109942,1.29726,0.908569,0.127407,1.78692,1.07641
2.65,0.10911,1.29797,0.907474,0.126835,1.78565,1.07655
2.66,0.108224,1.29867,0.906389,0.126269,1.78439,1.07668
2.67,0.107413,1.29937,0.905311,0.125707,1.78315,1.07682
2.68,0.10653,1.30006,0.904242,0.125149,1.78191,1.07694
2.69,0.105727,1.30077,0.903181,0.124633,1.78069,1.07707
2.7,0.104913,1.3015,0.902129,0.124159,1.77948,1.07719
2.71,0.104036,1.30222,0.901085,0.123687,1.77827,1.07731
2.72,0.103234,1.30292,0.900049,0.123211,1.77708,1.07743
2.73,0.102366,1.30361,0.899022,0.12272,1.77589,1.07754
2.74,0.101587,1.3043,0.898003,0.122225,1.77472,1.07768
2.75,0.100797,1.305,0.896991,0.121746,1.77355,1.07781
2.76,0.0999416,1.3057,0.895988,0.12128,1.7724,1.07793
2.77,0.0991874,1.30639,0.894992,0.120817,1.77125,1.07806
2.78,0.0984269,1.30707,0.894005,0.120355,1.77012,1.07818
2.79,0.0976548,1.30774,0.893025,0.119893,1.769,1.0783
2.8,0.0968418,1.3084,0.892053,0.119437,1.76788,1.07841
2.81,0.0960988,1.30905,0.891089,0.118985,1.76678,1.07852
2.82,0.0953563,1.3097,0.890132,0.118537,1.76569,1.07863
2.83,0.0946287,1.31033,0.889183,0.11809,1.7646,1.07874
2.84,0.0938237,1.31096,0.888241,0.117644,1.76353,1.07884
2.85,0.0930877,1.31157,0.887307,0.1172,1.76246,1.07894
2.86,0.0922598,1.31218,0.886381,0.116756,1.7614,1.07903
2.87,0.091535,1.31278,0.885462,0.116316,1.76036,1.07913
2.88,0.090817,1.31339,0.884551,0.115883,1.75932,1.07924
2.89,0.0901065,1.31401,0.883647,0.115456,1.75829,1.07935
2.9,0.0894168,1.31462,0.882749,0.115034,1.75726,1.07945
2.91,0.0887146,1.31523,0.881859,0.114617,1.75625,1.07956
2.92,0.0880102,1.31582,0.880976,0.114205,1.75525,1.07966
2.93,0.0873296,1.31641,0.8801,0.113797,1.75425,1.07976
2.94,0.086651,1.317,0.879231,0.113393,1.75327,1.07986
2.95,0.0859802,1.31758,0.878368,0.112994,1.75229,1.07995
2.96,0.0853144,1.31815,0.877512,0.112597,1.75132,1.08004
2.97,0.0845291,1.31871,0.876664,0.112205,1.75036,1.08013
2.98,0.0838925,1.31927,0.875823,0.111818,1.74941,1.08021
2.99,0.0832152,1.31983,0.874989,0.111435,1.74846,1.0803
3,0.0826107,1.32039,0.874161,0.111057,1.74752,1.08038
3.01,0.0819978,1.32093,0.873339,0.110683,1.74659,1.08046
3.02,0.0813633,1.32147,0.872523,0.110313,1.74567,1.08054
3.03,0.0807456,1.322,0.871713,0.109947,1.74476,1.08061
3.04,0.0801305,1.32255,0.87091,0.109584,1.74385,1.0807
3.05,0.0795225,1.32309,0.870112,0.109225,1.74296,1.08079
3.06,0.078918,1.32362,0.869321,0.108865,1.74207,1.08088
3.07,0.0783208,1.32415,0.868536,0.108503,1.7412,1.08096
3.08,0.0777275,1.32466,0.867756,0.10814,1.74033,1.08104
3.09,0.0771397,1.32516,0.866983,0.107778,1.73947,1.08112
3.1,0.0765479,1.32566,0.866215,0.107418,1.73861,1.0812
3.11,0.0759852,1.32615,0.865453,0.107059,1.73776,1.08128
3.12,0.0754118,1.32663,0.864697,0.106703,1.73693,1.08135
3.13,0.074883,1.32711,0.863946,0.10635,1.73609,1.08143
3.14,0.0742929,1.32758,0.863201,0.105999,1.73527,1.0815
3.15,0.0737285,1.32805,0.862462,0.105652,1.73445,1.08157
3.16,0.0731495,1.32851,0.861729,0.105307,1.73364,1.08163
3.17,0.0725898,1.32897,0.861001,0.104964,1.73284,1.0817
3.18,0.0720319,1.32942,0.860278,0.104625,1.73204,1.08176
3.19,0.0714823,1.32987,0.859562,0.104288,1.73124,1.08182
3.2,0.0709317,1.33032,0.85885,0.103954,1.73046,1.08188
3.21,0.0703988,1.33076,0.858144,0.103623,1.72968,1.08194
3.22,0.069872,1.33121,0.857444,0.103294,1.7289,1.08201
3.23,0.0693431,1.33166,0.856748,0.102968,1.72813,1.08208
3.24,0.0688311,1.3321,0.856058,0.102645,1.72737,1.08215
3.25,0.0682962,1.33254,0.855373,0.102323,1.72662,1.08222
3.26,0.0678007,1.33298,0.854693,0.102005,1.72587,1.08229
3.27,0.0673091,1.33341,0.854018,0.101689,1.72512,1.08235
3.28,0.0668082,1.33384,0.853349,0.101376,1.72439,1.08242
3.29,0.0663109,1.33426,0.852684,0.101066,1.72366,1.08248
3.3,0.0658285,1.33468,0.852023,0.100759,1.72293,1.08254
3.31,0.0653428,1.33509,0.851368,0.100455,1.72221,1.0826
3.32,0.0648615,1.3355,0.850718,0.100153,1.7215,1.08265
3.33,0.0643839,1.33591,0.850072,0.0998541,1.72079,1.08271
3.34,0.0639063,1.33631,0.849431,0.099558,1.72009,1.08276
3.35,0.0634485,1.3367,0.848795,0.0992647,1.71939,1.08282
3.36,0.062978,1.3371,0.848164,0.0989741,1.7187,1.08287
3.37,0.0625103,1.33748,0.847537,0.0986863,1.71802,1.08292
3.38,0.0620386,1.33787,0.846915,0.0984012,1.71734,1.08297
3.39,0.0615719,1.33825,0.846297,0.0981187,1.71667,1.08301
3.4,0.0611111,1.33863,0.845684,0.0978389,1.716,1.08306
3.41,0.0606575,1.339,0.845076,0.0975618,1.71534,1.08311
3.42,0.0602138,1.33937,0.844472,0.0972873,1.71468,1.08315
3.43,0.0597785,1.33975,0.843873,0.0970154,1.71403,1.0832
3.44,0.0593357,1.34013,0.843278,0.0967461,1.71339,1.08326
3.45,0.0589138,1.34051,0.842687,0.0964792,1.71275,1.08331
3.46,0.058493,1.34088,0.842101,0.0962147,1.71211,1.08337
3.47,0.0580752,1.34125,0.841519,0.0959526,1.71148,1.08342
3.48,0.0576629,1.34162,0.84094,0.095693,1.71086,1.08347
3.49,0.05724,1.34198,0.840366,0.0954357,1.71024,1.08352
3.5,0.0568333,1.34234,0.839797,0.0951809,1.70962,1.08357
3.51,0.0564249,1.3427,0.839231,0.0949284,1.70901,1.08361
3.52,0.0560183,1.34305,0.838669,0.0946783,1.70841,1.08366
3.53,0.0556156,1.3434,0.838112,0.0944304,1.7078,1.0837
3.54,0.0552328,1.34375,0.837558,0.0941849,1.70721,1.08375
3.55,0.0548531,1.34409,0.837008,0.0939415,1.70662,1.08379
3.56,0.0544616,1.34443,0.836462,0.0937003,1.70603,1.08383
3.57,0.0540904,1.34476,0.83592,0.0934588,1.70545,1.08387
3.58,0.0537159,1.34509,0.835382,0.0932156,1.70487,1.08391
3.59,0.0533419,1.34541,0.834847,0.0929717,1.7043,1.08395
3.6,0.0529598,1.34573,0.834316,0.0927281,1.70373,1.08398
3.61,0.0525908,1.34604,0.833789,0.0924851,1.70316,1.08402
3.62,0.052226,1.34635,0.833265,0.0922428,1.7026,1.08406
