time,velocity,ratio,centerX,Xmax,Xmin,Ymax
0,0,1,1.25,0.25,2.25,1
0.01,0.0160876,1.00003,1.24992,0.24996,2.24991,1.00001
0.02,0.0309873,1.00012,1.24968,0.249833,2.24964,1.00002
0.03,0.0447942,1.00027,1.24931,0.249614,2.2492,1.00006
0.04,0.0575298,1.00045,1.2488,0.249277,2.24861,1.00011
0.05,0.0692552,1.00063,1.24816,0.24881,2.24789,1.00017
0.06,0.0801346,1.00083,1.24742,0.248222,2.24704,1.00024
0.07,0.090161,1.00103,1.24657,0.247527,2.24607,1.0003
0.08,0.0994324,1.00121,1.24562,0.246723,2.245,1.00035
0.09,0.10795,1.00137,1.24458,0.245818,2.24385,1.00038
0.1,0.115918,1.00149,1.24346,0.244816,2.24265,1.00041
0.11,0.123412,1.00159,1.24227,0.243729,2.2414,1.00043
0.12,0.13058,1.00166,1.241,0.242549,2.24012,1.00045
0.13,0.13725,1.00169,1.23966,0.241275,2.23882,1.00046
0.14,0.143606,1.0017,1.23826,0.239902,2.23746,1.00048
0.15,0.149534,1.00172,1.23679,0.238463,2.23602,1.00049
0.16,0.154837,1.00173,1.23527,0.236967,2.23451,1.0005
0.17,0.159959,1.00175,1.2337,0.23543,2.23292,1.00049
0.18,0.164744,1.00178,1.23208,0.233842,2.23126,1.00048
0.19,0.168818,1.0018,1.23041,0.232209,2.22956,1.00048
0.2,0.172591,1.00183,1.2287,0.230533,2.22783,1.00048
0.21,0.176331,1.00186,1.22696,0.228818,2.22606,1.00048
0.22,0.179856,1.00192,1.22518,0.227082,2.22426,1.0005
0.23,0.183418,1.00198,1.22337,0.225334,2.22245,1.00053
0.24,0.186639,1.00204,1.22152,0.223552,2.2206,1.00056
0.25,0.189614,1.00212,1.21964,0.22174,2.2187,1.00059
0.26,0.192565,1.00218,1.21773,0.219868,2.21673,1.00061
0.27,0.194989,1.00225,1.21579,0.217975,2.21474,1.00063
0.28,0.197316,1.00231,1.21383,0.216068,2.21273,1.00063
0.29,0.199448,1.00235,1.21185,0.21413,2.2107,1.00063
0.3,0.201394,1.00239,1.20984,0.21215,2.20866,1.00064
0.31,0.203568,1.00242,1.20782,0.210154,2.20664,1.00066
0.32,0.205576,1.00244,1.20577,0.208143,2.20463,1.00068
0.33,0.207385,1.00246,1.20371,0.206118,2.20259,1.00069
0.34,0.208689,1.0025,1.20163,0.20409,2.20049,1.0007
0.35,0.21003,1.00253,1.19954,0.202048,2.19838,1.00069
0.36,0.211142,1.00257,1.19743,0.200002,2.19625,1.00068
0.37,0.212099,1.00261,1.19532,0.197944,2.1941,1.00068
0.38,0.21316,1.00266,1.19319,0.195838,2.19194,1.00071
0.39,0.21417,1.00269,1.19106,0.193728,2.18982,1.00073
0.4,0.214849,1.00273,1.18891,0.191606,2.18768,1.00076
0.41,0.215558,1.00278,1.18676,0.189492,2.1855,1.00078
0.42,0.216096,1.00285,1.18461,0.187393,2.18329,1.00079
0.43,0.216498,1.0029,1.18244,0.185306,2.18108,1.00078
0.44,0.21661,1.00296,1.18028,0.183227,2.17888,1.00078
0.45,0.216854,1.00303,1.17811,0.181131,2.17668,1.0008
0.46,0.217089,1.00307,1.17594,0.179002,2.17453,1.00083
0.47,0.217235,1.00311,1.17377,0.176881,2.17238,1.00086
0.48,0.217174,1.00316,1.1716,0.174754,2.17021,1.00088
0.49,0.216906,1.00322,1.16943,0.172637,2.16799,1.00088
0.5,0.216614,1.00326,1.16727,0.170519,2.16578,1.00088
0.51,0.216174,1.0033,1.1651,0.168417,2.16357,1.00087
0.52,0.215731,1.00336,1.16294,0.166316,2.16138,1.00088
0.53,0.215323,1.00339,1.16079,0.164181,2.15923,1.0009
0.54,0.214975,1.00341,1.15864,0.162059,2.15711,1.00093
0.55,0.214454,1.00345,1.15649,0.159942,2.15497,1.00095
0.56,0.213769,1.00349,1.15435,0.157849,2.15279,1.00095
0.57,0.213051,1.00353,1.15222,0.155765,2.15062,1.00095
0.58,0.212156,1.00357,1.15009,0.153702,2.14846,1.00094
0.59,0.211213,1.00362,1.14798,0.151647,2.14632,1.00095
0.6,0.210382,1.00366,1.14587,0.149574,2.1442,1.00097
0.61,0.20968,1.00369,1.14377,0.147506,2.14212,1.00099
0.62,0.208734,1.00373,1.14168,0.145449,2.14004,1.00101
0.63,0.207773,1.00378,1.1396,0.143417,2.13792,1.00103
0.64,0.206606,1.00383,1.13753,0.141401,2.13581,1.00102
0.65,0.205483,1.00387,1.13547,0.139401,2.13372,1.00102
0.66,0.204169,1.00391,1.13342,0.137414,2.13164,1.00101
0.67,0.202951,1.00396,1.13139,0.135426,2.12959,1.00103
0.68,0.201861,1.00398,1.12936,0.133412,2.12759,1.00106
0.69,0.20076,1.00401,1.12735,0.131429,2.12559,1.00108
0.7,0.199612,1.00405,1.12535,0.129465,2.12358,1.00109
0.71,0.198297,1.00409,1.12336,0.127525,2.12155,1.00109
0.72,0.19691,1.00412,1.12139,0.125594,2.11955,1.00109
0.73,0.195465,1.00416,1.11943,0.123693,2.11756,1.00108
0.74,0.193914,1.0042,1.11748,0.121806,2.1156,1.00108
0.75,0.192548,1.00425,1.11555,0.11992,2.11366,1.0011
0.76,0.19122,1.00427,1.11363,0.118022,2.11176,1.00113
0.77,0.190087,1.00431,1.11172,0.116163,2.10987,1.00115
0.78,0.188717,1.00436,1.10983,0.114326,2.10796,1.00116
0.79,0.18726,1.00441,1.10795,0.112501,2.10604,1.00116
0.8,0.185669,1.00444,1.10609,0.110683,2.10414,1.00115
0.81,0.184095,1.00447,1.10424,0.108885,2.10227,1.00115
0.82,0.182473,1.00451,1.10241,0.107103,2.10041,1.00115
0.83,0.180882,1.00455,1.10059,0.105329,2.09858,1.00117
0.84,0.179372,1.00458,1.09879,0.103559,2.0968,1.00119
0.85,0.177967,1.00462,1.09701,0.101817,2.09503,1.00121
0.86,0.176453,1.00466,1.09524,0.100099,2.09325,1.00122
0.87,0.174861,1.00472,1.09348,0.0984017,2.09145,1.00123
0.88,0.173161,1.00476,1.09174,0.0967179,2.08968,1.00123
0.89,0.171435,1.0048,1.09002,0.0950442,2.08793,1.00123
0.9,0.169653,1.00484,1.08831,0.0933932,2.08621,1.00123
0.91,0.167854,1.00487,1.08663,0.0917567,2.0845,1.00123
0.92,0.166132,1.00492,1.08496,0.0901274,2.08282,1.00125
0.93,0.164553,1.00495,1.08331,0.0885107,2.08118,1.00126
0.94,0.162992,1.00498,1.08167,0.0869228,2.07956,1.00128
0.95,0.161335,1.00502,1.08005,0.0853554,2.07794,1.0013
0.96,0.159607,1.00508,1.07845,0.0838098,2.07629,1.0013
0.97,0.157772,1.00512,1.07686,0.082289,2.07468,1.0013
0.98,0.155897,1.00516,1.07529,0.0807763,2.07309,1.0013
0.99,0.153986,1.0052,1.07374,0.0792797,2.07153,1.0013
1,0.152045,1.00523,1.07221,0.0778018,2.06998,1.0013
1.01,0.1502,1.00527,1.0707,0.0763391,2.06846,1.00131
1.02,0.148378,1.00531,1.06921,0.0748913,2.06696,1.00133
1.03,0.146689,1.00535,1.06774,0.0734606,2.0655,1.00134
1.04,0.14509,1.00539,1.06628,0.0720576,2.06405,1.00136
1.05,0.143323,1.00543,1.06484,0.0706688,2.0626,1.00137
1.06,0.141601,1.00549,1.06341,0.0692992,2.06113,1.00138
1.07,0.139702,1.00553,1.06201,0.0679508,2.05969,1.00138
1.08,0.137834,1.00557,1.06062,0.066613,2.05829,1.00138
1.09,0.135942,1.0056,1.05925,0.0652828,2.05691,1.00139
1.1,0.134017,1.00562,1.0579,0.0639688,2.05555,1.00139
1.11,0.132132,1.00564,1.05657,0.0626673,2.05421,1.00138
1.12,0.130225,1.00567,1.05526,0.0614003,2.05288,1.00139
1.13,0.128295,1.00571,1.05397,0.0601656,2.05159,1.0014
1.14,0.126778,1.00575,1.0527,0.0589385,2.05033,1.00142
1.15,0.125249,1.00577,1.05144,0.057726,2.04908,1.00143
1.16,0.123677,1.00581,1.05019,0.0565341,2.04784,1.00143
1.17,0.122033,1.00585,1.04896,0.0553501,2.04659,1.00144
1.18,0.120406,1.00589,1.04775,0.0541997,2.04534,1.00144
1.19,0.118623,1.00593,1.04656,0.0530715,2.04414,1.00144
1.2,0.116843,1.00597,1.04538,0.0519473,2.04296,1.00145
1.21,0.115063,1.006,1.04422,0.0508317,2.04179,1.00145
1.22,0.113289,1.00603,1.04308,0.0497244,2.04063,1.00145
1.23,0.111501,1.00605,1.04196,0.0486412,2.03949,1.00145
1.24,0.109695,1.00608,1.04085,0.0475776,2.03837,1.00145
1.25,0.10791,1.00612,1.03977,0.046548,2.03727,1.00146
1.26,0.106213,1.00616,1.0387,0.0455325,2.0362,1.00147
1.27,0.104691,1.0062,1.03764,0.0445319,2.03516,1.00148
1.28,0.103264,1.00623,1.0366,0.0435483,2.03413,1.00149
1.29,0.101845,1.00627,1.03558,0.0425859,2.0331,1.0015
1.3,0.100265,1.00631,1.03457,0.0416397,2.03208,1.00151
1.31,0.0988101,1.00637,1.03357,0.0407103,2.03105,1.00151
1.32,0.0973296,1.00641,1.03259,0.0397981,2.03006,1.00151
1.33,0.0957448,1.00645,1.03163,0.0389048,2.02909,1.00151
1.34,0.0941023,1.00649,1.03068,0.0380232,2.02814,1.00152
1.35,0.0924762,1.00653,1.02975,0.0371475,2.0272,1.00152
1.36,0.0908232,1.00656,1.02883,0.036279,2.02627,1.00152
1.37,0.0892079,1.00659,1.02793,0.0354201,2.02536,1.00152
1.38,0.0876138,1.00661,1.02705,0.0345794,2.02447,1.00152
1.39,0.0860165,1.00664,1.02618,0.0337636,2.02359,1.00152
1.4,0.0844216,1.00667,1.02533,0.0329629,2.02273,1.00152
1.41,0.0828342,1.0067,1.02449,0.0321746,2.02189,1.00152
1.42,0.0813187,1.00673,1.02367,0.0314132,2.02107,1.00153
1.43,0.0799657,1.00678,1.02287,0.0306879,2.02028,1.00154
1.44,0.0787664,1.00681,1.02207,0.0299518,2.01949,1.00154
1.45,0.0776529,1.00685,1.02129,0.029246,2.01871,1.00155
1.46,0.0765654,1.00689,1.02052,0.0285461,2.01794,1.00155
1.47,0.075397,1.00693,1.01976,0.0278512,2.01718,1.00156
1.48,0.0741083,1.00699,1.01901,0.0271892,2.01642,1.00156
1.49,0.0728614,1.00705,1.01828,0.0265368,2.01565,1.00156
1.5,0.0715961,1.00709,1.01756,0.0258945,2.01492,1.00157
1.51,0.0702862,1.00714,1.01685,0.0252643,2.01421,1.00157
1.52,0.0689161,1.00719,1.01615,0.024641,2.01351,1.00158
1.53,0.0675504,1.00724,1.01547,0.0240354,2.01282,1.00159
1.54,0.0661733,1.0073,1.0148,0.0234627,2.01214,1.00159
1.55,0.064806,1.00734,1.01415,0.0228739,2.01147,1.0016
1.56,0.0634584,1.00738,1.01351,0.0223031,2.01082,1.0016
1.57,0.0621293,1.00743,1.01288,0.0217571,2.01018,1.0016
1.58,0.0608174,1.00746,1.01227,0.0211954,2.00955,1.0016
1.59,0.0595086,1.0075,1.01166,0.0206628,2.00895,1.0016
1.6,0.0582096,1.00753,1.01108,0.0201463,2.00836,1.00159
1.61,0.056906,1.00757,1.0105,0.0196687,2.00779,1.00159
1.62,0.0556084,1.00761,1.00994,0.01918,2.00723,1.00158
1.63,0.0543131,1.00764,1.00939,0.018692,2.00668,1.00159
1.64,0.0530744,1.00768,1.00885,0.0182242,2.00614,1.00159
1.65,0.0518879,1.00772,1.00833,0.0177686,2.00562,1.0016
1.66,0.0508039,1.00777,1.00782,0.0173371,2.00511,1.00161
1.67,0.0498676,1.00781,1.00731,0.0169,2.0046,1.00161
1.68,0.0490266,1.00785,1.00682,0.0164626,2.0041,1.00162
1.69,0.0482088,1.00788,1.00633,0.016042,2.00361,1.00162
1.7,0.0474341,1.00792,1.00585,0.0156376,2.00313,1.00162
1.71,0.0467107,1.00797,1.00538,0.0152587,2.00267,1.00163
1.72,0.046022,1.00803,1.00492,0.0148968,2.00221,1.00163
1.73,0.0452614,1.00808,1.00446,0.0145351,2.00176,1.00164
1.74,0.0442529,1.00813,1.00402,0.0141691,2.0013,1.00165
1.75,0.0432478,1.0082,1.00358,0.0138156,2.00081,1.00164
1.76,0.0422486,1.00825,1.00315,0.0134747,2.00036,1.00164
1.77,0.0412508,1.0083,1.00274,0.0131354,1.99994,1.00165
1.78,0.0402532,1.00834,1.00233,0.0128122,1.99954,1.00165
1.79,0.0392705,1.0084,1.00193,0.0125083,1.99914,1.00166
1.8,0.0382898,1.00844,1.00154,0.0122001,1.99875,1.00166
1.81,0.0372915,1.00848,1.00117,0.0119,1.99837,1.00166
1.82,0.0362681,1.00852,1.0008,0.0116006,1.998,1.00166
1.83,0.0352493,1.00855,1.00044,0.0113055,1.99764,1.00166
1.84,0.034231,1.00859,1.00009,0.0110121,1.99729,1.00166
1.85,0.0332412,1.00861,0.999757,0.0107238,1.99695,1.00167
1.86,0.0322797,1.00865,0.99943,0.0104542,1.99662,1.00167
1.87,0.0313564,1.00867,0.999112,0.010178,1.99629,1.00167
1.88,0.0304722,1.0087,0.998803,0.0099182,1.99598,1.00167
1.89,0.0296295,1.00872,0.998503,0.0096619,1.99568,1.00167
1.9,0.0288191,1.00873,0.998211,0.00940738,1.99539,1.00166
1.91,0.0280419,1.00875,0.997926,0.00915879,1.99511,1.00166
1.92,0.0273028,1.00876,0.99765,0.00891962,1.99484,1.00166
1.93,0.0265968,1.00877,0.997381,0.00867513,1.99457,1.00166
1.94,0.0259282,1.00877,0.997118,0.00843554,1.99432,1.00165
1.95,0.0252903,1.00878,0.996862,0.00820559,1.99407,1.00165
1.96,0.0246864,1.00878,0.996613,0.00797461,1.99382,1.00164
1.97,0.0241161,1.00879,0.996369,0.00774865,1.99358,1.00164
1.98,0.0235738,1.00879,0.996131,0.0075259,1.99334,1.00164
1.99,0.0230639,1.0088,0.995898,0.00731746,1.99311,1.00164
2,0.0225927,1.00881,0.99567,0.00710434,1.99289,1.00163
2.01,0.0221505,1.00881,0.995446,0.00689736,1.99266,1.00163
2.02,0.0217257,1.00882,0.995227,0.00669621,1.99245,1.00163
2.03,0.0213154,1.00882,0.995012,0.00649936,1.99223,1.00163
2.04,0.0209227,1.00883,0.994801,0.00630756,1.99202,1.00162
2.05,0.0205532,1.00883,0.994594,0.00611306,1.99182,1.00162
2.06,0.0201987,1.00884,0.99439,0.00591926,1.99162,1.00162
2.07,0.0198618,1.00884,0.99419,0.00572833,1.99142,1.00162
2.08,0.0195282,1.00884,0.993993,0.00553815,1.99122,1.00162
2.09,0.0192006,1.00885,0.9938,0.00535812,1.99103,1.00162
2.1,0.0188865,1.00886,0.99361,0.0051776,1.99083,1.00162
2.11,0.0185919,1.00886,0.993423,0.0049968,1.99065,1.00162
2.12,0.0183237,1.00886,0.993238,0.00481937,1.99047,1.00162
2.13,0.0180793,1.00886,0.993057,0.00464535,1.99029,1.00162
2.14,0.0178655,1.00886,0.992877,0.00447323,1.99012,1.00162
2.15,0.0176827,1.00887,0.9927,0.00430922,1.98994,1.00162
2.16,0.0175409,1.00887,0.992524,0.00414556,1.98977,1.00162
2.17,0.0174293,1.00888,0.992349,0.0039823,1.9896,1.00162
2.18,0.0173592,1.00711,0.992175,0.000339114,1.98943,1.00162
2.19,0.0173175,1.00731,0.992002,0.000548885,1.98926,1.00162
2.2,0.0172991,1.00719,0.99183,0.000158359,1.98909,1.00162
2.21,0.0172885,1.00738,0.991657,0.000358932,1.98892,1.00162
2.22,0.0172758,1.00787,0.991484,0.00114759,1.98875,1.00162
2.23,0.017256,1.00856,0.991312,0.00232776,1.98858,1.00162
2.24,0.017229,1.00747,0.99114,-0,1.9884,1.00163
2.25,0.0171921,1.00822,0.990968,0.00128858,1.98823,1.00163
2.26,0.017145,1.00914,0.990797,0.00291296,1.98805,1.00164
2.27,0.0170845,1.00816,0.990626,0.000805195,1.98787,1.00164
2.28,0.0170111,1.00926,0.990455,0.00278102,1.98769,1.00165
2.29,0.0169239,1.00837,0.990286,0.00083451,1.98751,1.00166
2.3,0.0168242,1.00957,0.990118,0.0029868,1.98734,1.00167
2.31,0.0167074,1.00882,0.98995,0.00132785,1.98716,1.00167
2.32,0.0165735,1.00824,0.989784,-0,1.98699,1.00168
2.33,0.0164144,1.00943,0.989619,0.00214017,1.98681,1.00169
2.34,0.0162228,1.00868,0.989456,0.000474626,1.98664,1.0017
2.35,0.0160048,1.01007,0.989296,0.00303247,1.98647,1.00171
2.36,0.0157557,1.00948,0.989137,0.00168436,1.9863,1.00171
2.37,0.0154833,1.00882,0.988981,0.000215873,1.98613,1.00172
2.38,0.01519,1.01033,0.988828,0.00301363,1.98597,1.00173
2.39,0.0148745,1.00981,0.988678,0.00180774,1.98582,1.00173
2.4,0.0140755,1.0092,0.988533,0.000446194,1.98566,1.00174
2.41,0.0130908,1.01067,0.988397,0.00315717,1.98547,1.00173
2.42,0.0121332,1.0104,0.988271,0.00247568,1.98529,1.00172
2.43,0.0112082,1.00984,0.988155,0.00128346,1.98519,1.00171
2.44,0.0103246,1.0093,0.988047,0.000149981,1.98511,1.00171
2.45,0.00952303,1.01087,0.987948,0.00315517,1.98503,1.00171
2.46,0.00879473,1.01054,0.987857,0.00244305,1.98496,1.00171
2.47,0.00812962,1.01,0.987773,0.00133474,1.98489,1.0017
2.48,0.00750897,1.00948,0.987695,0.000268666,1.98482,1.00169
2.49,0.00692752,1.01098,0.987623,0.00315877,1.98476,1.00168
2.5,0.00639188,1.01083,0.987556,0.00281164,1.9847,1.00167
2.51,0.00591266,1.01038,0.987495,0.00189163,1.98464,1.00167
2.52,0.00549633,1.00991,0.987438,0.000905604,1.98458,1.00167
2.53,0.00513595,1.0095,0.987385,5.21429e-05,1.98453,1.00166
2.54,0.00481674,1.0111,0.987335,0.00315947,1.98449,1.00166
2.55,0.00453168,1.011,0.987289,0.00294058,1.98445,1.00166
2.56,0.00427489,1.01064,0.987245,0.00219987,1.98441,1.00165
2.57,0.00405178,1.01023,0.987203,0.00136609,1.98437,1.00165
2.58,0.00385885,1.00985,0.987164,0.000584089,1.98434,1.00164
2.59,0.00368601,1.00956,0.987126,-0,1.98431,1.00164
2.6,0.00353098,1.01118,0.98709,0.00316014,1.98428,1.00163
2.61,0.00338921,1.01118,0.987056,0.00315261,1.98425,1.00163
2.62,0.00326189,1.01101,0.987023,0.00278347,1.98422,1.00162
2.63,0.00315457,1.01071,0.986991,0.00217837,1.9842,1.00162
2.64,0.00306597,1.01038,0.98696,0.00152529,1.98417,1.00162
2.65,0.00298956,1.01008,0.986929,0.00090386,1.98415,1.00161
2.66,0.00291901,1.0098,0.9869,0.000350906,1.98412,1.00161
2.67,0.00284952,1.00964,0.986871,-0,1.98409,1.00161
2.68,0.00277894,1.01126,0.986843,0.00315784,1.98407,1.0016
2.69,0.00270635,1.01127,0.986816,0.00316527,1.98404,1.0016
2.7,0.00263421,1.01128,0.986789,0.00316647,1.98402,1.0016
2.71,0.0025662,1.01122,0.986763,0.00302005,1.984,1.0016
2.72,0.00250225,1.01106,0.986738,0.00267988,1.98397,1.0016
2.73,0.00244187,1.01085,0.986713,0.00224908,1.98395,1.0016
2.74,0.00237968,1.01063,0.986689,0.00179981,1.98392,1.0016
2.75,0.00231219,1.01042,0.986666,0.0013664,1.9839,1.00159
2.76,0.00223634,1.01022,0.986643,0.000964894,1.98388,1.00159
2.77,0.00215246,1.01005,0.986621,0.000601977,1.98386,1.00159
2.78,0.00205981,1.00989,0.9866,0.000281193,1.98384,1.00159
2.79,0.00195905,1.00976,0.98658,1.61057e-06,1.98382,1.00159
2.8,0.00185238,1.00976,0.986561,-0,1.98381,1.00159
2.81,0.00174079,1.01138,0.986543,0.00315737,1.98379,1.00159
2.82,0.00162631,1.01139,0.986527,0.00316296,1.98377,1.00159
2.83,0.00151259,1.0114,0.986511,0.00316952,1.98375,1.00159
2.84,0.00140193,1.01142,0.986497,0.00317587,1.98374,1.00158
2.85,0.00129583,1.01143,0.986483,0.00318127,1.98372,1.00158
2.86,0.00119347,1.01143,0.986471,0.00318355,1.98371,1.00158
2.87,0.00109395,1.01137,0.986459,0.0030671,1.9837,1.00158
2.88,0.000995993,1.01141,0.986449,0.00314295,1.98369,1.00158
2.89,0.000900174,1.01141,0.98644,0.00313609,1.98369,1.00158
2.9,0.000807693,1.01128,0.986431,0.00288719,1.98368,1.00157
2.91,0.000717819,1.01116,0.986424,0.00264953,1.98368,1.00157
2.92,0.000627854,1.01104,0.986417,0.00241302,1.98368,1.00157
2.93,0.000536564,1.01092,0.986411,0.00217886,1.98367,1.00157
2.94,0.000444115,1.0108,0.986406,0.00195232,1.98367,1.00156
2.95,0.0003513,1.01069,0.986402,0.00173619,1.98367,1.00156
2.96,0.00025873,1.01059,0.986399,0.00153219,1.98367,1.00156
2.97,0.000166955,1.01049,0.986397,0.00134105,1.98367,1.00156
2.98,7.63632e-05,1.0104,0.986396,0.00116314,1.98367,1.00156
2.99,-1.32417e-05,1.01031,0.986396,0.000998452,1.98367,1.00156
3,-0.000101603,1.01023,0.986396,0.00084664,1.98367,1.00156
3.01,-0.000188588,1.01016,0.986398,0.000707223,1.98367,1.00155
3.02,-0.000273955,1.01009,0.9864,0.000579589,1.98367,1.00155
3.03,-0.000357298,1.01003,0.986403,0.000463036,1.98367,1.00155
3.04,-0.000438021,1.00997,0.986407,0.000356794,1.98368,1.00155
3.05,-0.000516165,1.00991,0.986412,0.000260935,1.98369,1.00155
3.06,-0.000591257,1.00986,0.986418,0.000174114,1.9837,1.00154
3.07,-0.000662863,1.00982,0.986424,9.4651e-05,1.98371,1.00154
3.08,-0.000730631,1.00977,0.986431,2.19524e-05,1.98372,1.00154
3.09,-0.00079331,1.00975,0.986439,-0,1.98373,1.00154
3.1,-0.000851206,1.00974,0.986447,-0,1.98374,1.00153
3.11,-0.000903716,1.00973,0.986456,-0,1.98375,1.00153
3.12,-0.000951361,1.00972,0.986465,-0,1.98376,1.00153
3.13,-0.000994198,1.00972,0.986475,-0,1.98378,1.00153
3.14,-0.00103256,1.01131,0.986485,0.00315327,1.98379,1.00152
3.15,-0.0010669,1.01131,0.986495,0.00315451,1.9838,1.00152
3.16,-0.00109743,1.0113,0.986506,0.00315582,1.98382,1.00152
3.17,-0.00112442,1.01129,0.986517,0.00315725,1.98383,1.00152
3.18,-0.00114799,1.01128,0.986529,0.00315878,1.98384,1.00151
3.19,-0.00116919,1.01127,0.98654,0.00316039,1.98386,1.00151
3.2,-0.00118829,1.01126,0.986552,0.00316204,1.98387,1.00151
3.21,-0.00120582,1.01125,0.986564,0.00316374,1.98389,1.00151
3.22,-0.00122219,1.01124,0.986576,0.00316544,1.9839,1.0015
3.23,-0.00123771,1.01123,0.986588,0.00316716,1.98392,1.0015
3.24,-0.00125254,1.01122,0.986601,0.00316883,1.98393,1.0015
3.25,-0.00126719,1.01121,0.986614,0.00317049,1.98395,1.0015
3.26,-0.00128172,1.0112,0.986626,0.00317209,1.98396,1.00149
3.27,-0.0012963,1.0112,0.986639,0.00317365,1.98398,1.00149
3.28,-0.0013107,1.01119,0.986652,0.00317513,1.98399,1.00149
3.29,-0.00132565,1.01118,0.986666,0.00317656,1.98401,1.00149
3.3,-0.00119873,1.01117,0.986679,0.0031779,1.98403,1.00148
3.31,-0.000906671,1.01116,0.986689,0.00317918,1.98405,1.00148
3.32,-0.00065272,1.01114,0.986697,0.00318036,1.9841,1.00149
3.33,-0.000374339,1.01115,0.986703,0.00318147,1.98408,1.0015
3.34,-9.21196e-05,1.01115,0.986705,0.00318248,1.98408,1.0015
3.35,-0.000182281,1.01116,0.986706,0.00318337,1.98408,1.0015
3.36,-0.000230769,1.01118,0.986708,0.00318424,1.98403,1.00149
3.37,-0.000297667,1.01118,0.986711,0.00318503,1.98402,1.00149
3.38,-0.00048201,1.01117,0.986715,0.00318559,1.98404,1.00149
3.39,-0.000441954,1.01117,0.98672,0.0031861,1.98404,1.00149
3.4,-0.000265398,1.01116,0.986723,0.00318646,1.98406,1.00149
3.41,-0.000181464,1.01114,0.986725,0.00318656,1.98412,1.0015
3.42,2.18743e-05,1.01115,0.986726,0.00318683,1.9841,1.0015
