time,velocity,ratio,centerX,Xmax,Xmin,Ymax
0,0,1,6,5,7,1
0.01,0.019198,0.999989,5.99991,4.99989,6.99993,1.00001
0.02,0.0372648,1,5.99964,4.99962,6.99965,1.00001
0.03,0.0543273,1.00001,5.9992,4.99918,6.99919,1.00002
0.04,0.070449,1.00003,5.99859,4.99857,6.99855,1.00002
0.05,0.0856874,1.00005,5.99782,4.99781,6.99776,1.00002
0.06,0.100195,1.00007,5.99691,4.99689,6.99681,1.00002
0.07,0.113989,1.00008,5.99585,4.99584,6.99572,1.00003
0.08,0.127119,1.0001,5.99466,4.99465,6.9945,1.00002
0.09,0.139637,1.00011,5.99334,4.99334,6.99315,1.00002
0.1,0.151573,1.00012,5.99189,4.99191,6.99169,1.00001
0.11,0.162996,1.00015,5.99033,4.99036,6.99011,1.00002
0.12,0.173904,1.00019,5.98866,4.98871,6.98843,1.00004
0.13,0.184346,1.00022,5.98688,4.98696,6.98665,1.00006
0.14,0.194348,1.00023,5.985,4.98512,6.9848,1.00008
0.15,0.203851,1.00023,5.98302,4.98318,6.98289,1.00009
0.16,0.213017,1.00022,5.98094,4.98114,6.98088,1.00009
0.17,0.221774,1.00022,5.97878,4.97901,6.97878,1.0001
0.18,0.2302,1.00022,5.97653,4.9768,6.97657,1.00011
0.19,0.238263,1.00025,5.9742,4.97451,6.97427,1.00013
0.2,0.246066,1.00031,5.97178,4.97216,6.97187,1.00016
0.21,0.253539,1.00037,5.96929,4.96974,6.96938,1.00019
0.22,0.260725,1.00043,5.96673,4.96726,6.96683,1.00022
0.23,0.267654,1.00049,5.9641,4.96469,6.96421,1.00025
0.24,0.27424,1.00055,5.96139,4.96206,6.9615,1.00027
0.25,0.280668,1.00063,5.95863,4.95938,6.9587,1.00029
0.26,0.286927,1.00077,5.9558,4.95664,6.9558,1.00035
0.27,0.292927,1.00091,5.9529,4.95386,6.95284,1.0004
0.28,0.298715,1.00104,5.94995,4.95102,6.94983,1.00044
0.29,0.304333,1.00116,5.94694,4.94811,6.94675,1.00048
0.3,0.309747,1.00128,5.94388,4.94513,6.94359,1.00051
0.31,0.315005,1.00145,5.94076,4.94209,6.94034,1.00058
0.32,0.320021,1.00163,5.93759,4.93901,6.93704,1.00064
0.33,0.324868,1.0018,5.93437,4.93589,6.9337,1.0007
0.34,0.329625,1.00199,5.9311,4.93275,6.93027,1.00075
0.35,0.334134,1.0022,5.92779,4.92956,6.92677,1.0008
0.36,0.338666,1.00246,5.92443,4.92635,6.9232,1.00088
0.37,0.342852,1.0027,5.92103,4.92311,6.91964,1.00096
0.38,0.347041,1.00293,5.91758,4.91983,6.91605,1.00104
0.39,0.350962,1.00316,5.9141,4.9165,6.9124,1.0011
0.4,0.354978,1.00342,5.91057,4.91314,6.90868,1.00118
0.41,0.358672,1.00371,5.90701,4.90976,6.90492,1.00128
0.42,0.362433,1.00399,5.90341,4.90636,6.90114,1.00137
0.43,0.365919,1.00427,5.89977,4.90293,6.8973,1.00145
0.44,0.36943,1.00457,5.8961,4.89946,6.8934,1.00152
0.45,0.372793,1.00491,5.89239,4.89597,6.88946,1.00164
0.46,0.376059,1.00525,5.88865,4.89247,6.88551,1.00175
0.47,0.379158,1.00559,5.88488,4.88896,6.8815,1.00184
0.48,0.382241,1.00592,5.88108,4.88539,6.87744,1.00192
0.49,0.38513,1.00628,5.87725,4.88176,6.87334,1.00205
0.5,0.388025,1.00665,5.87338,4.87809,6.86917,1.00216
0.51,0.390878,1.00701,5.86949,4.87437,6.86495,1.00227
0.52,0.393626,1.00735,5.86557,4.87064,6.86073,1.00236
0.53,0.396329,1.00772,5.86163,4.86693,6.85656,1.0025
0.54,0.39896,1.00808,5.85766,4.86321,6.85238,1.00263
0.55,0.401531,1.00844,5.85366,4.85947,6.84816,1.00274
0.56,0.404019,1.00879,5.84963,4.85569,6.8439,1.00284
0.57,0.406428,1.00918,5.84558,4.85189,6.83962,1.00299
0.58,0.408763,1.00956,5.84151,4.84806,6.83531,1.00312
0.59,0.41112,1.00996,5.83741,4.84423,6.83093,1.00324
0.6,0.4133,1.01035,5.8333,4.84037,6.82652,1.00335
0.61,0.415582,1.01078,5.82915,4.83648,6.8221,1.00351
0.62,0.417629,1.01121,5.82499,4.83258,6.81762,1.00365
0.63,0.419768,1.01165,5.82081,4.82867,6.81309,1.00377
0.64,0.421784,1.01209,5.8166,4.82473,6.80854,1.0039
0.65,0.423757,1.01257,5.81238,4.82074,6.80393,1.00406
0.66,0.425741,1.01304,5.80813,4.81672,6.79928,1.0042
0.67,0.427646,1.01348,5.80387,4.81269,6.79464,1.00433
0.68,0.429518,1.01392,5.79959,4.80864,6.79001,1.00448
0.69,0.431367,1.01441,5.79529,4.80459,6.78534,1.00464
0.7,0.433152,1.01489,5.79097,4.80054,6.78064,1.00479
0.71,0.434935,1.01536,5.78663,4.7965,6.77594,1.00493
0.72,0.436625,1.01587,5.78227,4.79242,6.7712,1.00509
0.73,0.438293,1.0164,5.7779,4.78833,6.76642,1.00526
0.74,0.439916,1.01691,5.77351,4.78424,6.76164,1.00541
0.75,0.441493,1.01742,5.76911,4.78016,6.75683,1.00555
0.76,0.442998,1.01799,5.76469,4.77605,6.75198,1.00574
0.77,0.44445,1.01855,5.76026,4.77195,6.74711,1.0059
0.78,0.445889,1.01913,5.75581,4.76785,6.74218,1.00605
0.79,0.447278,1.01975,5.75134,4.76376,6.73723,1.00622
0.8,0.448617,1.02032,5.74687,4.75963,6.73234,1.0064
0.81,0.449929,1.02083,5.74238,4.75545,6.72751,1.00657
0.82,0.451238,1.02131,5.73787,4.75123,6.72265,1.00671
0.83,0.452513,1.02184,5.73336,4.74698,6.71775,1.00691
0.84,0.453824,1.02238,5.72883,4.74277,6.71286,1.00709
0.85,0.455133,1.02293,5.72429,4.73858,6.70792,1.00725
0.86,0.456387,1.02351,5.71973,4.73439,6.70294,1.00742
0.87,0.4576,1.02411,5.71516,4.73017,6.69796,1.00762
0.88,0.458781,1.02469,5.71058,4.72592,6.69293,1.00779
0.89,0.459936,1.02528,5.70599,4.72167,6.68786,1.00795
0.9,0.461078,1.02592,5.70139,4.71742,6.68279,1.00815
0.91,0.462263,1.02656,5.69677,4.71314,6.67766,1.00834
0.92,0.46339,1.02719,5.69215,4.70885,6.67248,1.00851
0.93,0.464499,1.02782,5.68751,4.70456,6.66735,1.00869
0.94,0.465632,1.02847,5.68286,4.70026,6.6622,1.0089
0.95,0.466671,1.0291,5.6782,4.69591,6.65702,1.00908
0.96,0.46768,1.02969,5.67353,4.69154,6.65184,1.00925
0.97,0.46869,1.03033,5.66885,4.68715,6.64664,1.00946
0.98,0.469671,1.03098,5.66416,4.68276,6.6414,1.00966
0.99,0.470625,1.03161,5.65946,4.67838,6.63617,1.00984
1,0.471557,1.03227,5.65476,4.67401,6.63092,1.01003
1.01,0.472452,1.03297,5.65004,4.66964,6.62563,1.01025
1.02,0.473246,1.03364,5.64531,4.66523,6.62034,1.01043
1.03,0.474138,1.03433,5.64058,4.66084,6.61498,1.01061
1.04,0.474981,1.03506,5.63583,4.65645,6.60963,1.01083
1.05,0.475627,1.03573,5.63108,4.65206,6.60437,1.01103
1.06,0.476475,1.03637,5.62632,4.64765,6.59911,1.01121
1.07,0.477354,1.03706,5.62156,4.64326,6.59381,1.01142
1.08,0.478163,1.03776,5.61678,4.63888,6.58853,1.01163
1.09,0.478987,1.03843,5.612,4.63445,6.58322,1.01182
1.1,0.479746,1.03909,5.60721,4.62998,6.57787,1.01201
1.11,0.480555,1.03977,5.60241,4.62548,6.57252,1.01224
1.12,0.481308,1.04043,5.5976,4.62097,6.56715,1.01244
1.13,0.482003,1.04112,5.59278,4.61649,6.56174,1.01262
1.14,0.482737,1.04186,5.58796,4.61203,6.55634,1.01284
1.15,0.483393,1.04261,5.58313,4.60757,6.55087,1.01305
1.16,0.484137,1.04333,5.5783,4.60307,6.5454,1.01324
1.17,0.484838,1.04405,5.57345,4.59858,6.53996,1.01345
1.18,0.485531,1.0448,5.5686,4.59408,6.5345,1.01367
1.19,0.486251,1.04553,5.56375,4.58958,6.52902,1.01387
1.2,0.487092,1.04623,5.55888,4.58505,6.52355,1.01406
1.21,0.487767,1.047,5.55401,4.58053,6.51805,1.01429
1.22,0.488414,1.04774,5.54913,4.576,6.51254,1.0145
1.23,0.489072,1.04844,5.54425,4.57143,6.50703,1.01468
1.24,0.489653,1.04919,5.53935,4.56684,6.50149,1.01491
1.25,0.490214,1.04992,5.53446,4.56223,6.49595,1.01512
1.26,0.490886,1.05064,5.52955,4.55763,6.49039,1.01532
1.27,0.491355,1.05141,5.52464,4.55304,6.4848,1.01553
1.28,0.491875,1.05214,5.51973,4.54846,6.4793,1.01576
1.29,0.492424,1.05284,5.51481,4.54388,6.47381,1.01595
1.3,0.493,1.05355,5.50988,4.53928,6.4683,1.01615
1.31,0.493534,1.05428,5.50495,4.5347,6.4628,1.01638
1.32,0.49405,1.05502,5.50002,4.53012,6.45728,1.01659
1.33,0.494601,1.05575,5.49507,4.52554,6.45172,1.01678
1.34,0.495079,1.05653,5.49013,4.52096,6.44616,1.01701
1.35,0.49559,1.05732,5.48518,4.51641,6.44057,1.01723
1.36,0.496015,1.0581,5.48022,4.51185,6.43496,1.01742
1.37,0.496439,1.0589,5.47526,4.50725,6.42935,1.01765
1.38,0.496818,1.05969,5.47029,4.50261,6.42369,1.01787
1.39,0.497136,1.06043,5.46532,4.49794,6.41804,1.01807
1.4,0.497549,1.06123,5.46035,4.49331,6.4124,1.0183
1.41,0.498029,1.06206,5.45538,4.4887,6.40673,1.01853
1.42,0.498527,1.06286,5.4504,4.4841,6.40107,1.01873
1.43,0.49892,1.06367,5.44541,4.47949,6.39539,1.01895
1.44,0.499396,1.06451,5.44042,4.47485,6.38969,1.01918
1.45,0.499802,1.06532,5.43542,4.47023,6.38401,1.01939
1.46,0.50025,1.06613,5.43043,4.46559,6.3783,1.0196
1.47,0.500628,1.06697,5.42542,4.46094,6.37259,1.01984
1.48,0.501047,1.06779,5.42042,4.45629,6.36688,1.02006
1.49,0.501422,1.06861,5.41541,4.45164,6.36114,1.02025
1.5,0.501793,1.06943,5.41039,4.44696,6.35543,1.0205
1.51,0.502133,1.07021,5.40537,4.44224,6.34976,1.02072
1.52,0.502462,1.07096,5.40035,4.43752,6.34406,1.02091
1.53,0.502842,1.07174,5.39533,4.43279,6.33838,1.02115
1.54,0.503192,1.07254,5.3903,4.42808,6.33268,1.02138
1.55,0.503563,1.07334,5.38526,4.42339,6.32695,1.02158
1.56,0.503986,1.07415,5.38023,4.41869,6.32123,1.0218
1.57,0.504346,1.07498,5.37519,4.41398,6.31548,1.02204
1.58,0.504802,1.0758,5.37014,4.40928,6.30972,1.02224
1.59,0.50509,1.07665,5.3651,4.40459,6.30393,1.02246
1.6,0.505406,1.07753,5.36004,4.39989,6.29812,1.0227
1.61,0.505716,1.07837,5.35499,4.39519,6.29234,1.02291
1.62,0.505993,1.0792,5.34993,4.39051,6.28656,1.02311
1.63,0.506303,1.08009,5.34487,4.38582,6.28077,1.02335
1.64,0.506541,1.08091,5.33981,4.38108,6.27499,1.02357
1.65,0.50673,1.0817,5.33474,4.3763,6.26919,1.02377
1.66,0.507031,1.08253,5.32968,4.3715,6.26338,1.02401
1.67,0.507322,1.08337,5.32461,4.36675,6.25758,1.02423
1.68,0.507623,1.08421,5.31953,4.36202,6.25175,1.02443
1.69,0.507962,1.08508,5.31446,4.35729,6.24593,1.02466
1.7,0.508236,1.08596,5.30938,4.35253,6.24006,1.02489
1.71,0.508497,1.08681,5.3043,4.34778,6.23421,1.02509
1.72,0.508767,1.08763,5.29921,4.34303,6.22844,1.02531
1.73,0.509049,1.08845,5.29412,4.33826,6.22268,1.02554
1.74,0.509329,1.08924,5.28903,4.33349,6.21691,1.02575
1.75,0.509625,1.09004,5.28394,4.32873,6.21114,1.02595
1.76,0.509878,1.09087,5.27884,4.32395,6.20536,1.02619
1.77,0.510096,1.09167,5.27374,4.31913,6.19956,1.0264
1.78,0.510345,1.09243,5.26864,4.31429,6.19375,1.02659
1.79,0.510598,1.09327,5.26354,4.30946,6.18792,1.02683
1.8,0.510795,1.09409,5.25843,4.30464,6.18209,1.02705
1.81,0.511001,1.09492,5.25333,4.29983,6.17621,1.02724
1.82,0.511299,1.0958,5.24822,4.29504,6.17033,1.02747
1.83,0.511579,1.09664,5.2431,4.29022,6.16448,1.02769
1.84,0.511834,1.09746,5.23799,4.28541,6.15862,1.02789
1.85,0.512043,1.09833,5.23287,4.28062,6.15275,1.02811
1.86,0.512202,1.0992,5.22775,4.27583,6.14688,1.02833
1.87,0.51246,1.10006,5.22263,4.27104,6.14099,1.02853
1.88,0.512632,1.10094,5.2175,4.26627,6.13511,1.02874
1.89,0.512789,1.10185,5.21238,4.26151,6.12922,1.02897
1.9,0.512867,1.10271,5.20725,4.2567,6.12332,1.02917
1.91,0.51272,1.10354,5.20212,4.25185,6.11742,1.02936
1.92,0.512925,1.10443,5.197,4.24699,6.11148,1.0296
1.93,0.513192,1.10529,5.19187,4.24218,6.10558,1.02981
1.94,0.51349,1.10611,5.18674,4.23738,6.09973,1.02999
1.95,0.513694,1.10701,5.1816,4.23259,6.09386,1.03022
1.96,0.513896,1.10785,5.17647,4.22777,6.08801,1.03044
1.97,0.514077,1.10866,5.17133,4.22295,6.08215,1.03062
1.98,0.5143,1.10954,5.16619,4.21813,6.07628,1.03084
1.99,0.514547,1.11039,5.16104,4.2133,6.0704,1.03106
2,0.514763,1.11122,5.1559,4.20846,6.06451,1.03124
2.01,0.51495,1.11209,5.15075,4.20363,6.05862,1.03145
2.02,0.515114,1.11295,5.1456,4.19879,6.05271,1.03167
2.03,0.515218,1.11379,5.14045,4.1939,6.04677,1.03185
2.04,0.515408,1.11461,5.1353,4.189,6.04087,1.03205
2.05,0.515611,1.11545,5.13015,4.1841,6.03496,1.03227
2.06,0.515815,1.11628,5.12499,4.17922,6.02904,1.03246
2.07,0.516,1.11711,5.11983,4.17435,6.02313,1.03265
2.08,0.516192,1.11799,5.11467,4.16948,6.01721,1.03287
2.09,0.516411,1.11883,5.10951,4.1646,6.01129,1.03306
2.1,0.516596,1.11966,5.10435,4.15973,6.00537,1.03325
2.11,0.51673,1.12056,5.09918,4.15488,5.99943,1.03347
2.12,0.516919,1.12142,5.09402,4.15001,5.99348,1.03366
2.13,0.517023,1.1223,5.08885,4.14515,5.9875,1.03384
2.14,0.517106,1.1232,5.08368,4.14031,5.98158,1.03406
2.15,0.517204,1.12403,5.07851,4.13545,5.97572,1.03426
2.16,0.517284,1.1248,5.07334,4.13054,5.96985,1.03442
2.17,0.517441,1.1256,5.06817,4.12561,5.964,1.03465
2.18,0.517597,1.12638,5.06299,4.12067,5.95814,1.03485
2.19,0.517751,1.12717,5.05782,4.11577,5.95226,1.03502
2.2,0.517925,1.12802,5.05264,4.11089,5.94638,1.03524
2.21,0.51812,1.12886,5.04746,4.106,5.94048,1.03543
2.22,0.518257,1.12966,5.04228,4.1011,5.93458,1.03561
2.23,0.518544,1.13052,5.0371,4.0962,5.92866,1.03582
2.24,0.518736,1.13139,5.03191,4.0913,5.92271,1.03602
2.25,0.518867,1.1322,5.02673,4.08639,5.91679,1.03619
2.26,0.518974,1.13305,5.02154,4.08147,5.91087,1.0364
2.27,0.519079,1.13391,5.01635,4.07657,5.90493,1.0366
2.28,0.519195,1.13471,5.01116,4.07162,5.89901,1.03678
2.29,0.519382,1.13553,5.00597,4.06666,5.89307,1.03697
2.3,0.519508,1.13635,5.00077,4.06168,5.88713,1.03718
2.31,0.519633,1.13715,4.99558,4.0567,5.8812,1.03736
2.32,0.519765,1.13797,4.99038,4.05175,5.87525,1.03754
2.33,0.519927,1.13883,4.98519,4.04682,5.86931,1.03775
2.34,0.520089,1.13966,4.97999,4.04187,5.86336,1.03794
2.35,0.520225,1.14048,4.97479,4.03693,5.85741,1.03811
2.36,0.520275,1.14133,4.96959,4.032,5.85149,1.03832
2.37,0.520357,1.14216,4.96439,4.02708,5.84558,1.03851
2.38,0.520402,1.14296,4.95918,4.02216,5.83967,1.03867
2.39,0.52047,1.14383,4.95398,4.01726,5.83376,1.03889
2.4,0.520511,1.14469,4.94878,4.01237,5.82784,1.03907
2.41,0.52049,1.14548,4.94357,4.00745,5.82192,1.03923
2.42,0.520553,1.14633,4.93837,4.00248,5.816,1.03944
2.43,0.520465,1.14713,4.93317,3.99748,5.81006,1.03963
2.44,0.520597,1.14794,4.92796,3.99253,5.80411,1.03979
2.45,0.520788,1.14883,4.92276,3.98762,5.79814,1.03999
2.46,0.520902,1.1497,4.91755,3.98271,5.7922,1.04019
2.47,0.520979,1.15052,4.91234,3.97778,5.78626,1.04035
2.48,0.521052,1.15139,4.90713,3.97285,5.78032,1.04054
2.49,0.521139,1.15225,4.90192,3.96793,5.77438,1.04074
2.5,0.521228,1.15307,4.89671,3.96299,5.76844,1.0409
2.51,0.521294,1.15392,4.8915,3.95805,5.76249,1.04109
2.52,0.521319,1.15478,4.88629,3.95312,5.75655,1.04128
2.53,0.521344,1.1556,4.88108,3.94816,5.7506,1.04145
2.54,0.521418,1.15642,4.87586,3.94317,5.74465,1.04163
2.55,0.521469,1.15727,4.87065,3.93817,5.73867,1.04183
2.56,0.521538,1.15808,4.86544,3.93318,5.73271,1.042
2.57,0.521644,1.15885,4.86022,3.9282,5.72681,1.04216
2.58,0.52174,1.15967,4.85501,3.92323,5.72092,1.04237
2.59,0.521909,1.16046,4.84979,3.91827,5.71504,1.04254
2.6,0.522,1.16121,4.84457,3.91329,5.70916,1.04269
2.61,0.522056,1.16204,4.83935,3.90833,5.70327,1.0429
2.62,0.522157,1.16285,4.83413,3.90338,5.69738,1.04307
2.63,0.522192,1.16362,4.82891,3.89842,5.69147,1.04322
2.64,0.522247,1.16447,4.82369,3.89347,5.68556,1.04342
2.65,0.522236,1.16532,4.81847,3.88854,5.67964,1.0436
2.66,0.522289,1.16611,4.81325,3.88357,5.6737,1.04374
2.67,0.522404,1.16694,4.80803,3.87856,5.66776,1.04394
2.68,0.522523,1.16771,4.8028,3.87352,5.66184,1.04412
2.69,0.52261,1.16849,4.79758,3.86851,5.6559,1.04427
2.7,0.522694,1.16931,4.79235,3.86354,5.64998,1.04445
2.71,0.52282,1.17015,4.78713,3.85857,5.64405,1.04464
2.72,0.52289,1.17094,4.7819,3.85358,5.63811,1.04479
2.73,0.522937,1.17175,4.77667,3.84859,5.63218,1.04496
2.74,0.523015,1.17259,4.77144,3.84361,5.62624,1.04515
2.75,0.523052,1.17338,4.76621,3.83862,5.62031,1.0453
2.76,0.523087,1.1742,4.76098,3.83362,5.61436,1.04547
2.77,0.523106,1.17505,4.75576,3.82863,5.6084,1.04566
2.78,0.52317,1.17582,4.75053,3.82362,5.60248,1.04581
2.79,0.523249,1.17657,4.74529,3.81858,5.59657,1.04597
2.8,0.523357,1.17735,4.74006,3.81352,5.59067,1.04616
2.81,0.523152,1.17808,4.73483,3.80846,5.58477,1.04632
2.82,0.523325,1.17883,4.7296,3.80343,5.57887,1.04647
2.83,0.523467,1.17964,4.72437,3.79842,5.57296,1.04667
2.84,0.523617,1.18042,4.71913,3.7934,5.56706,1.04683
2.85,0.523671,1.18118,4.7139,3.78838,5.56115,1.04698
2.86,0.523682,1.18198,4.70866,3.78338,5.55524,1.04716
2.87,0.523749,1.18279,4.70343,3.77839,5.54931,1.04731
2.88,0.523792,1.18356,4.69819,3.77338,5.54338,1.04745
2.89,0.523789,1.1844,4.69296,3.76841,5.53747,1.04764
2.9,0.523839,1.18522,4.68772,3.76345,5.53155,1.04779
2.91,0.523855,1.18599,4.68248,3.75846,5.52564,1.04792
2.92,0.523896,1.18679,4.67724,3.75343,5.51973,1.04811
2.93,0.523902,1.18754,4.67201,3.74836,5.51381,1.04827
2.94,0.524008,1.18827,4.66677,3.74333,5.5079,1.0484
2.95,0.52411,1.1891,4.66153,3.73833,5.50199,1.04858
2.96,0.524147,1.18991,4.65629,3.73335,5.49607,1.04874
2.97,0.524265,1.19067,4.65105,3.72835,5.49015,1.04887
2.98,0.524245,1.1915,4.64581,3.72334,5.48422,1.04905
2.99,0.524233,1.19228,4.64056,3.71834,5.47834,1.04921
3,0.52424,1.19299,4.63532,3.71332,5.47249,1.04933
3.01,0.524263,1.19376,4.63008,3.7083,5.46663,1.04951
3.02,0.524304,1.19451,4.62484,3.70329,5.46079,1.04967
3.03,0.524382,1.19521,4.6196,3.69827,5.45495,1.0498
3.04,0.524444,1.19594,4.61436,3.6932,5.4491,1.04997
3.05,0.524513,1.19665,4.60911,3.68812,5.44325,1.05013
3.06,0.52461,1.19733,4.60387,3.68305,5.4374,1.05026
3.07,0.524742,1.19807,4.59862,3.678,5.43154,1.05043
3.08,0.524779,1.19882,4.59338,3.67296,5.42567,1.05059
3.09,0.524837,1.19955,4.58813,3.66793,5.41979,1.05072
3.1,0.524887,1.2003,4.58288,3.66288,5.41392,1.05089
3.11,0.524914,1.20105,4.57763,3.65785,5.40805,1.05104
3.12,0.524951,1.20178,4.57239,3.65282,5.40218,1.05117
3.13,0.524958,1.20254,4.56714,3.64779,5.39632,1.05133
3.14,0.524989,1.20331,4.56189,3.64278,5.39045,1.05149
3.15,0.524385,1.20406,4.55665,3.63778,5.38458,1.05162
3.16,0.524415,1.2048,4.5514,3.63274,5.37872,1.05178
3.17,0.524493,1.20553,4.54616,3.62766,5.37285,1.05194
3.18,0.524567,1.20621,4.54092,3.62256,5.36698,1.05207
3.19,0.524635,1.20696,4.53567,3.6175,5.36109,1.05222
3.2,0.524717,1.20772,4.53042,3.61246,5.35522,1.05238
3.21,0.524777,1.20843,4.52518,3.60743,5.34937,1.05251
3.22,0.524798,1.20915,4.51993,3.60238,5.34353,1.05266
3.23,0.524803,1.20988,4.51468,3.59733,5.33769,1.05282
3.24,0.524857,1.21059,4.50944,3.59229,5.33186,1.05295
3.25,0.52491,1.21129,4.50419,3.58723,5.32602,1.05309
3.26,0.524971,1.21202,4.49894,3.58217,5.32018,1.05325
3.27,0.525011,1.21273,4.49369,3.57712,5.31434,1.05339
3.28,0.525095,1.21342,4.48844,3.57205,5.3085,1.05352
3.29,0.525185,1.21413,4.48319,3.56694,5.30264,1.05369
3.3,0.525242,1.21481,4.47794,3.56183,5.29678,1.05382
3.31,0.525362,1.21548,4.47269,3.55672,5.29093,1.05395
3.32,0.525462,1.21621,4.46744,3.55164,5.28508,1.05411
3.33,0.525515,1.21691,4.46218,3.54657,5.27923,1.05425
3.34,0.52557,1.21759,4.45693,3.54149,5.27339,1.05437
3.35,0.525507,1.21833,4.45168,3.53642,5.26754,1.05454
3.36,0.525539,1.21904,4.44642,3.53136,5.26169,1.05467
3.37,0.525544,1.21973,4.44117,3.52631,5.25584,1.05478
3.38,0.525515,1.22049,4.43591,3.52126,5.25,1.05495
3.39,0.525481,1.22123,4.43066,3.51624,5.24415,1.05509
3.4,0.525407,1.22196,4.42541,3.51122,5.23828,1.0552
3.41,0.525379,1.22272,4.42015,3.50616,5.23242,1.05537
3.42,0.525388,1.22339,4.4149,3.50106,5.2266,1.0555
3.43,0.525311,1.22399,4.40965,3.49593,5.22079,1.05561
3.44,0.525375,1.22471,4.4044,3.49086,5.21499,1.05578
3.45,0.525389,1.22541,4.39914,3.48583,5.2092,1.05592
3.46,0.525395,1.22607,4.39389,3.48079,5.2034,1.05602
3.47,0.525377,1.22679,4.38864,3.47573,5.19761,1.05618
3.48,0.525395,1.22748,4.38338,3.47069,5.19181,1.05633
3.49,0.525428,1.22815,4.37813,3.46564,5.18601,1.05643
3.5,0.525466,1.22887,4.37288,3.46058,5.18019,1.05659
3.51,0.525524,1.22958,4.36762,3.45552,5.17437,1.05673
3.52,0.525574,1.23025,4.36237,3.45047,5.16855,1.05684
3.53,0.525621,1.23094,4.35711,3.44537,5.16274,1.05699
3.54,0.525656,1.23161,4.35186,3.44026,5.15693,1.05713
3.55,0.525755,1.23224,4.3466,3.43514,5.15111,1.05725
3.56,0.525815,1.23292,4.34135,3.43005,5.1453,1.05739
3.57,0.525844,1.23362,4.33609,3.42497,5.13949,1.05754
3.58,0.52587,1.23429,4.33083,3.41989,5.13367,1.05765
3.59,0.525861,1.23497,4.32558,3.41481,5.12786,1.05778
3.6,0.525849,1.23567,4.32032,3.40973,5.12204,1.05793
3.61,0.525842,1.23635,4.31506,3.40467,5.11623,1.05804
3.62,0.525813,1.23705,4.3098,3.3996,5.1104,1.05817
3.63,0.525825,1.23778,4.30455,3.39454,5.10458,1.05832
3.64,0.525819,1.23846,4.29929,3.3895,5.09877,1.05844
3.65,0.52584,1.23914,4.29403,3.38443,5.09298,1.05856
3.66,0.525919,1.23981,4.28877,3.37932,5.08719,1.05871
3.67,0.525978,1.24041,4.28352,3.37418,5.0814,1.05883
3.68,0.526023,1.24103,4.27826,3.36905,5.07561,1.05895
3.69,0.526071,1.24171,4.273,3.36397,5.06983,1.0591
3.7,0.526101,1.24237,4.26774,3.35889,5.06404,1.05922
3.71,0.526092,1.24302,4.26248,3.35381,5.05825,1.05933
3.72,0.52609,1.2437,4.25722,3.34871,5.05247,1.05948
3.73,0.525759,1.24438,4.25196,3.34364,5.04666,1.0596
3.74,0.525821,1.24503,4.2467,3.33855,5.04087,1.05971
