time,velocity,ratio,centerX,Xmax,Xmin,Ymax
0,0,1,2.75,1.75,3.75,1
0.01,0.0189463,1,2.74991,1.74991,3.7499,1
0.02,0.0368021,1.00001,2.74964,1.74964,3.74962,1
0.03,0.0536729,1.00003,2.74919,1.7492,3.74916,1.00001
0.04,0.0696134,1.00004,2.74858,1.7486,3.74853,1.00001
0.05,0.0846729,1.00006,2.74781,1.74784,3.74774,1.00001
0.06,0.0990167,1.00008,2.7469,1.74694,3.74681,1.00002
0.07,0.112648,1.00011,2.74584,1.74591,3.74574,1.00002
0.08,0.125614,1.00013,2.74466,1.74475,3.74454,1.00002
0.09,0.137968,1.00015,2.74334,1.74347,3.74322,1.00002
0.1,0.149746,1.00017,2.74191,1.74208,3.74179,1.00003
0.11,0.161008,1.00022,2.74036,1.74057,3.74024,1.00005
0.12,0.171772,1.00026,2.7387,1.73896,3.7386,1.00008
0.13,0.182062,1.00029,2.73694,1.73724,3.73686,1.0001
0.14,0.191868,1.00033,2.73507,1.73544,3.73503,1.00012
0.15,0.201259,1.00036,2.73311,1.73355,3.73311,1.00014
0.16,0.210287,1.0004,2.73105,1.73156,3.73108,1.00016
0.17,0.218903,1.00046,2.72891,1.72948,3.72893,1.00018
0.18,0.22718,1.00053,2.72668,1.72732,3.72667,1.0002
0.19,0.235121,1.00063,2.72438,1.72509,3.72432,1.00024
0.2,0.242764,1.00074,2.72199,1.72279,3.72189,1.00029
0.21,0.250123,1.00086,2.71953,1.72043,3.71937,1.00034
0.22,0.257142,1.00098,2.717,1.718,3.71679,1.00038
0.23,0.263947,1.00112,2.71439,1.7155,3.71409,1.00042
0.24,0.27046,1.00127,2.71172,1.71294,3.7113,1.00045
0.25,0.276792,1.00145,2.70899,1.71032,3.70844,1.0005
0.26,0.282886,1.00164,2.7062,1.70765,3.70551,1.00057
0.27,0.288732,1.00183,2.70334,1.70493,3.70254,1.00063
0.28,0.294369,1.00203,2.70043,1.70217,3.6995,1.00069
0.29,0.299815,1.00223,2.69746,1.69934,3.69637,1.00074
0.3,0.305072,1.00243,2.69444,1.69644,3.69317,1.00079
0.31,0.310109,1.00267,2.69136,1.6935,3.68992,1.00088
0.32,0.315048,1.00289,2.68824,1.6905,3.68666,1.00096
0.33,0.319751,1.00314,2.68507,1.68747,3.68328,1.00103
0.34,0.32432,1.0034,2.68185,1.68442,3.67983,1.0011
0.35,0.328737,1.00365,2.67859,1.68131,3.67636,1.00116
0.36,0.333051,1.00392,2.67528,1.67818,3.67288,1.00126
0.37,0.336994,1.00417,2.67193,1.675,3.66941,1.00136
0.38,0.34114,1.00443,2.66854,1.6718,3.66586,1.00145
0.39,0.344996,1.0047,2.66511,1.66856,3.66223,1.00153
0.4,0.348777,1.00499,2.66165,1.66527,3.65856,1.00162
0.41,0.352419,1.00529,2.65814,1.66196,3.65488,1.00173
0.42,0.355932,1.0056,2.6546,1.65863,3.65114,1.00184
0.43,0.359348,1.00593,2.65103,1.65528,3.64732,1.00193
0.44,0.3627,1.00625,2.64742,1.65189,3.64346,1.00201
0.45,0.365868,1.0066,2.64378,1.64847,3.63961,1.00214
0.46,0.369006,1.00695,2.64011,1.64505,3.63571,1.00225
0.47,0.371985,1.00732,2.6364,1.64161,3.63175,1.00236
0.48,0.374901,1.00768,2.63267,1.63814,3.62775,1.00245
0.49,0.377659,1.00804,2.62891,1.63463,3.62378,1.00257
0.5,0.380427,1.00842,2.62512,1.63107,3.61971,1.0027
0.51,0.383114,1.0088,2.62131,1.62747,3.61559,1.00281
0.52,0.385703,1.00913,2.61746,1.62385,3.61152,1.00291
0.53,0.388211,1.00946,2.6136,1.62025,3.60752,1.00304
0.54,0.390715,1.00981,2.6097,1.61663,3.60348,1.00317
0.55,0.393184,1.01017,2.60579,1.61298,3.59935,1.00329
0.56,0.395509,1.01053,2.60184,1.6093,3.59517,1.00339
0.57,0.397786,1.0109,2.59788,1.6056,3.59101,1.00353
0.58,0.400052,1.01131,2.59389,1.60186,3.58675,1.00367
0.59,0.402146,1.01172,2.58988,1.59811,3.58243,1.00379
0.6,0.404022,1.01211,2.58585,1.59434,3.57811,1.0039
0.61,0.406089,1.01253,2.5818,1.59055,3.57379,1.00405
0.62,0.408102,1.01298,2.57773,1.58674,3.5694,1.00419
0.63,0.410082,1.01342,2.57364,1.58292,3.56497,1.00432
0.64,0.411708,1.01382,2.56954,1.5791,3.56058,1.00443
0.65,0.413624,1.01431,2.56541,1.57526,3.55609,1.00459
0.66,0.415426,1.01478,2.56127,1.57137,3.55158,1.00474
0.67,0.417206,1.01519,2.55711,1.56746,3.54711,1.00486
0.68,0.418925,1.01556,2.55293,1.56353,3.5427,1.00499
0.69,0.420538,1.01601,2.54873,1.5596,3.53822,1.00515
0.7,0.422139,1.01646,2.54452,1.55565,3.53369,1.00529
0.71,0.423758,1.01687,2.54029,1.5517,3.52918,1.00542
0.72,0.425268,1.01731,2.53605,1.54774,3.52464,1.00557
0.73,0.426717,1.0178,2.53179,1.54376,3.52004,1.00573
0.74,0.428153,1.01825,2.52752,1.53977,3.51545,1.00587
0.75,0.42953,1.01867,2.52323,1.53576,3.51088,1.00599
0.76,0.430933,1.01916,2.51893,1.53176,3.50624,1.00615
0.77,0.432193,1.01965,2.51461,1.52775,3.50159,1.00631
0.78,0.433682,1.02008,2.51029,1.52373,3.49699,1.00644
0.79,0.434931,1.02058,2.50595,1.51971,3.49226,1.00657
0.8,0.436053,1.02111,2.50159,1.51571,3.48756,1.00674
0.81,0.437199,1.02155,2.49723,1.51168,3.48299,1.00689
0.82,0.438328,1.02193,2.49285,1.50762,3.47844,1.00702
0.83,0.439384,1.02235,2.48846,1.50352,3.47381,1.00717
0.84,0.440387,1.02279,2.48406,1.49939,3.46915,1.00733
0.85,0.441489,1.02323,2.47966,1.49531,3.46451,1.00747
0.86,0.442517,1.0237,2.47524,1.49123,3.45978,1.0076
0.87,0.443583,1.02423,2.47081,1.48714,3.45502,1.00778
0.88,0.444609,1.02471,2.46637,1.48303,3.45029,1.00793
0.89,0.445609,1.02518,2.46192,1.4789,3.44551,1.00806
0.9,0.446555,1.02568,2.45746,1.47475,3.44069,1.00821
0.91,0.44749,1.02618,2.45299,1.47059,3.43591,1.00838
0.92,0.448371,1.02668,2.44851,1.46643,3.43106,1.00852
0.93,0.44932,1.02717,2.44403,1.46224,3.42619,1.00865
0.94,0.450205,1.02767,2.43953,1.45805,3.42138,1.00883
0.95,0.451102,1.02813,2.43502,1.45386,3.41662,1.00898
0.96,0.451982,1.02858,2.43051,1.44966,3.4118,1.00912
0.97,0.452829,1.02906,2.42599,1.44541,3.40696,1.00927
0.98,0.453332,1.02951,2.42146,1.44114,3.40215,1.00944
0.99,0.45408,1.02996,2.41692,1.43688,3.39729,1.00958
1,0.454877,1.03043,2.41238,1.43263,3.3924,1.00971
1.01,0.455664,1.03092,2.40782,1.42836,3.38756,1.00988
1.02,0.45645,1.0314,2.40327,1.4241,3.38268,1.01004
1.03,0.457228,1.03187,2.3987,1.41983,3.37777,1.01017
1.04,0.457917,1.03233,2.39412,1.41554,3.3729,1.01032
1.05,0.458607,1.03284,2.38954,1.41126,3.36796,1.01048
1.06,0.45922,1.03333,2.38495,1.40697,3.36303,1.01062
1.07,0.459897,1.03375,2.38036,1.40269,3.35822,1.01076
1.08,0.46054,1.03417,2.37576,1.3984,3.35344,1.01093
1.09,0.461207,1.03462,2.37115,1.39412,3.34859,1.01107
1.1,0.461831,1.03507,2.36654,1.38986,3.34372,1.0112
1.11,0.462454,1.03554,2.36192,1.38556,3.33886,1.01136
1.12,0.463031,1.03602,2.35729,1.38124,3.33394,1.01152
1.13,0.463575,1.03647,2.35266,1.37688,3.32898,1.01165
1.14,0.464103,1.03692,2.34802,1.37254,3.32407,1.0118
1.15,0.464609,1.03743,2.34338,1.36822,3.31911,1.01196
1.16,0.46495,1.03793,2.33873,1.3639,3.31412,1.0121
1.17,0.465513,1.03839,2.33408,1.35957,3.30917,1.01223
1.18,0.46611,1.03893,2.32942,1.35522,3.30415,1.0124
1.19,0.46671,1.03942,2.32476,1.35085,3.29913,1.01254
1.2,0.467257,1.03984,2.32009,1.34649,3.29422,1.01267
1.21,0.467719,1.04031,2.31542,1.34212,3.28929,1.01283
1.22,0.468282,1.04079,2.31074,1.33773,3.28431,1.01299
1.23,0.468837,1.04123,2.30605,1.33335,3.27935,1.01312
1.24,0.469386,1.04169,2.30136,1.32897,3.27439,1.01327
1.25,0.46992,1.04219,2.29667,1.32458,3.26937,1.01343
1.26,0.470356,1.04264,2.29197,1.32015,3.26438,1.01357
1.27,0.470811,1.04305,2.28726,1.3157,3.2594,1.01369
1.28,0.471229,1.04353,2.28256,1.31125,3.25438,1.01386
1.29,0.471572,1.04399,2.27784,1.30681,3.24937,1.014
1.3,0.471983,1.04442,2.27313,1.30238,3.24435,1.01412
1.31,0.472366,1.04493,2.26841,1.29794,3.23929,1.01428
1.32,0.472737,1.04536,2.26368,1.29351,3.23433,1.01443
1.33,0.473133,1.04572,2.25895,1.28905,3.22946,1.01456
1.34,0.473503,1.04612,2.25422,1.28461,3.22454,1.0147
1.35,0.473856,1.04657,2.24949,1.28018,3.21958,1.01486
1.36,0.474196,1.04698,2.24475,1.27574,3.21464,1.01499
1.37,0.474545,1.04742,2.24,1.27132,3.20964,1.01512
1.38,0.474844,1.04793,2.23526,1.26691,3.2046,1.01528
1.39,0.475099,1.0484,2.23051,1.26252,3.1996,1.01542
1.4,0.475332,1.04884,2.22576,1.25808,3.19456,1.01553
1.41,0.47551,1.04935,2.221,1.25361,3.18949,1.0157
1.42,0.475643,1.04978,2.21625,1.24912,3.18447,1.01584
1.43,0.475847,1.05026,2.21149,1.2447,3.17938,1.01596
1.44,0.476084,1.05078,2.20673,1.24028,3.17429,1.01611
1.45,0.476331,1.05124,2.20197,1.23585,3.16929,1.01626
1.46,0.476581,1.05168,2.19721,1.23141,3.16429,1.01638
1.47,0.476808,1.05213,2.19244,1.22695,3.15925,1.01652
1.48,0.47698,1.0526,2.18768,1.22249,3.15423,1.01667
1.49,0.477133,1.05304,2.18291,1.21803,3.14921,1.0168
1.5,0.477319,1.05349,2.17814,1.21356,3.14414,1.01692
1.51,0.476875,1.05396,2.17337,1.20908,3.1391,1.01708
1.52,0.476938,1.05441,2.1686,1.20462,3.13408,1.01722
1.53,0.476899,1.05485,2.16383,1.20016,3.12901,1.01733
1.54,0.476823,1.05531,2.15906,1.19566,3.12398,1.01749
1.55,0.476651,1.05574,2.1543,1.19115,3.11894,1.01763
1.56,0.476548,1.05617,2.14953,1.18663,3.11387,1.01774
1.57,0.476525,1.05659,2.14477,1.18215,3.10889,1.01789
1.58,0.476551,1.05696,2.14,1.17765,3.10399,1.01803
1.59,0.476505,1.05734,2.13524,1.17317,3.09905,1.01815
1.6,0.476564,1.05775,2.13047,1.16869,3.09407,1.01828
1.61,0.476522,1.05815,2.12571,1.1642,3.08912,1.01843
1.62,0.476523,1.05857,2.12094,1.15972,3.08411,1.01856
1.63,0.476526,1.059,2.11618,1.15525,3.07908,1.01867
1.64,0.476518,1.05945,2.11142,1.15078,3.0741,1.01883
1.65,0.47649,1.05989,2.10665,1.14632,3.06908,1.01896
1.66,0.476432,1.06034,2.10189,1.14189,3.06403,1.01906
1.67,0.47631,1.06082,2.09712,1.13747,3.05904,1.01922
1.68,0.476107,1.06129,2.09236,1.133,3.05397,1.01935
1.69,0.475972,1.06171,2.0876,1.12851,3.04892,1.01946
1.7,0.475898,1.06211,2.08284,1.12401,3.04397,1.0196
1.71,0.475815,1.06254,2.07809,1.11956,3.039,1.01974
1.72,0.475774,1.06297,2.07333,1.11512,3.034,1.01985
1.73,0.475761,1.0634,2.06857,1.11068,3.02903,1.01998
1.74,0.475638,1.06385,2.06382,1.10623,3.02405,1.02013
1.75,0.475542,1.06428,2.05906,1.10177,3.01903,1.02025
1.76,0.475408,1.06468,2.05431,1.0973,3.01404,1.02036
1.77,0.475336,1.06513,2.04955,1.09285,3.00907,1.02051
1.78,0.475246,1.06557,2.0448,1.08839,3.00406,1.02064
1.79,0.475227,1.06596,2.04005,1.08393,2.99908,1.02073
1.8,0.475008,1.06644,2.0353,1.07948,2.99406,1.02089
1.81,0.474757,1.0669,2.03055,1.07504,2.98903,1.02102
1.82,0.474466,1.06726,2.02581,1.07056,2.9841,1.02112
1.83,0.474232,1.0676,2.02107,1.06606,2.97926,1.02126
1.84,0.474091,1.06796,2.01633,1.06157,2.97437,1.0214
1.85,0.473936,1.06834,2.01159,1.05711,2.96945,1.02151
1.86,0.473398,1.06872,2.00685,1.05265,2.96456,1.02164
1.87,0.473249,1.06915,2.00212,1.04822,2.95962,1.02179
1.88,0.473096,1.06958,1.99739,1.04379,2.95464,1.02191
1.89,0.472892,1.06997,1.99266,1.03934,2.94971,1.02202
1.9,0.472716,1.07044,1.98793,1.03492,2.94475,1.02218
1.91,0.472504,1.0709,1.9832,1.03051,2.93976,1.0223
1.92,0.472231,1.07131,1.97848,1.0261,2.93481,1.02241
1.93,0.471966,1.07181,1.97376,1.02172,2.92982,1.02256
1.94,0.471567,1.07231,1.96904,1.01736,2.92482,1.02269
1.95,0.471245,1.07276,1.96433,1.01303,2.9199,1.0228
1.96,0.470963,1.0732,1.95962,1.00865,2.915,1.02294
1.97,0.47057,1.07365,1.95491,1.00425,2.91006,1.02309
1.98,0.470263,1.07406,1.95021,0.999828,2.90513,1.0232
1.99,0.469908,1.0745,1.94551,0.995471,2.90023,1.02333
2,0.469652,1.07501,1.94081,0.991139,2.89528,1.02348
2.01,0.469227,1.07548,1.93612,0.986814,2.89034,1.02361
2.02,0.469018,1.07592,1.93143,0.982484,2.88544,1.02372
2.03,0.468435,1.07642,1.92674,0.978134,2.8805,1.02388
2.04,0.467963,1.07689,1.92206,0.973787,2.87557,1.02401
2.05,0.467552,1.07733,1.91738,0.969452,2.87067,1.02412
2.06,0.467008,1.07784,1.91271,0.965116,2.86572,1.02427
2.07,0.46652,1.0783,1.90805,0.960775,2.86083,1.02441
2.08,0.465989,1.07868,1.90338,0.956451,2.85604,1.02453
2.09,0.465528,1.0791,1.89873,0.952144,2.85124,1.02466
2.1,0.465017,1.07955,1.89408,0.947806,2.8464,1.02481
2.11,0.464507,1.07994,1.88943,0.943446,2.84158,1.02494
2.12,0.464133,1.08034,1.88479,0.939087,2.83674,1.02506
2.13,0.463494,1.08082,1.88015,0.934754,2.83186,1.02522
2.14,0.463075,1.08127,1.87552,0.930434,2.827,1.02535
2.15,0.462486,1.0817,1.87089,0.926129,2.82216,1.02547
2.16,0.462098,1.0822,1.86627,0.921836,2.81728,1.02563
2.17,0.461649,1.08268,1.86165,0.91754,2.81241,1.02577
2.18,0.461242,1.08313,1.85704,0.913246,2.80756,1.02589
2.19,0.460806,1.08363,1.85243,0.908971,2.80266,1.02603
2.2,0.460283,1.08415,1.84782,0.904718,2.7978,1.02619
2.21,0.459844,1.08458,1.84322,0.900462,2.79302,1.02632
2.22,0.459377,1.08503,1.83863,0.896229,2.78821,1.02643
2.23,0.458912,1.08556,1.83404,0.892027,2.78339,1.0266
2.24,0.458337,1.08606,1.82945,0.887841,2.77859,1.02673
2.25,0.457872,1.08651,1.82487,0.883614,2.77379,1.02685
2.26,0.457417,1.08701,1.82029,0.879364,2.76896,1.027
2.27,0.456777,1.08747,1.81572,0.875101,2.76416,1.02715
2.28,0.456319,1.08794,1.81116,0.870898,2.75938,1.02728
2.29,0.455872,1.08845,1.8066,0.866717,2.75456,1.02741
2.3,0.455361,1.08898,1.80204,0.862542,2.74977,1.02757
2.31,0.454899,1.08947,1.79749,0.858368,2.74499,1.02771
2.32,0.454323,1.08996,1.79295,0.854175,2.74016,1.02782
2.33,0.453626,1.09046,1.78841,0.849986,2.7354,1.02799
2.34,0.453096,1.0909,1.78388,0.845811,2.73075,1.02813
2.35,0.452619,1.09132,1.77935,0.841648,2.72607,1.02825
2.36,0.451949,1.09179,1.77483,0.837473,2.72136,1.0284
2.37,0.45142,1.09226,1.77031,0.833312,2.71666,1.02856
2.38,0.450902,1.09273,1.7658,0.82917,2.71195,1.02869
2.39,0.450351,1.09322,1.76129,0.825025,2.7072,1.02882
2.4,0.449699,1.09372,1.75679,0.820843,2.70246,1.02899
2.41,0.449144,1.09418,1.7523,0.816653,2.69775,1.02913
2.42,0.447566,1.09463,1.74782,0.812469,2.693,1.02925
2.43,0.446644,1.09515,1.74335,0.808327,2.68826,1.02941
2.44,0.445989,1.09564,1.73889,0.804188,2.68356,1.02956
2.45,0.445403,1.09614,1.73443,0.800067,2.67882,1.02969
2.46,0.444341,1.09665,1.72998,0.795961,2.67409,1.02983
2.47,0.443705,1.09714,1.72554,0.791849,2.66944,1.02999
2.48,0.443118,1.09761,1.72111,0.787748,2.6648,1.03013
2.49,0.44255,1.09808,1.71668,0.78367,2.66013,1.03025
2.5,0.441828,1.09862,1.71226,0.779618,2.65547,1.03042
2.51,0.441217,1.09912,1.70784,0.775565,2.65084,1.03057
2.52,0.440528,1.09963,1.70343,0.77154,2.64617,1.0307
2.53,0.439877,1.10019,1.69903,0.767552,2.6415,1.03085
2.54,0.439147,1.10075,1.69464,0.763596,2.63689,1.03101
2.55,0.438502,1.10129,1.69025,0.759604,2.63225,1.03116
2.56,0.437848,1.10179,1.68587,0.755585,2.6276,1.03128
2.57,0.437013,1.1023,1.6815,0.751544,2.623,1.03145
2.58,0.436368,1.10283,1.67713,0.747526,2.61836,1.03161
2.59,0.435431,1.10338,1.67277,0.743579,2.61372,1.03174
2.6,0.434715,1.10391,1.66842,0.739653,2.60917,1.03189
2.61,0.434026,1.10442,1.66408,0.735724,2.60468,1.03205
2.62,0.433135,1.10492,1.65974,0.731795,2.60016,1.0322
2.63,0.432447,1.10541,1.65542,0.72785,2.59561,1.03232
2.64,0.431761,1.10594,1.6511,0.723911,2.5911,1.0325
2.65,0.430859,1.10647,1.64678,0.719992,2.58656,1.03265
2.66,0.430197,1.10701,1.64248,0.716082,2.58199,1.03279
2.67,0.429369,1.10754,1.63818,0.712163,2.57744,1.03294
2.68,0.42867,1.1081,1.63389,0.708264,2.57292,1.03311
2.69,0.427994,1.10867,1.62961,0.704386,2.56836,1.03326
2.7,0.427124,1.10921,1.62534,0.700514,2.56381,1.03339
2.71,0.426384,1.10975,1.62107,0.696607,2.55931,1.03357
2.72,0.425504,1.11031,1.61681,0.692693,2.55475,1.03373
2.73,0.424828,1.11085,1.61256,0.688786,2.5502,1.03388
2.74,0.423892,1.11137,1.60832,0.68491,2.54572,1.03402
2.75,0.423161,1.11191,1.60408,0.681053,2.54127,1.0342
2.76,0.422363,1.11247,1.59985,0.677215,2.53679,1.03436
2.77,0.421479,1.11301,1.59564,0.67339,2.53231,1.03449
2.78,0.420684,1.11357,1.59143,0.669581,2.52787,1.03466
2.79,0.419624,1.11414,1.58723,0.665766,2.52341,1.03484
2.8,0.418847,1.11471,1.58303,0.66197,2.51894,1.03499
2.81,0.417959,1.11526,1.57885,0.658204,2.5145,1.03512
2.82,0.417142,1.11587,1.57468,0.654463,2.51008,1.03531
2.83,0.416185,1.11647,1.57051,0.650721,2.50564,1.03548
2.84,0.415369,1.11706,1.56635,0.647007,2.50121,1.03563
2.85,0.414457,1.11767,1.5622,0.643331,2.49681,1.03579
2.86,0.413547,1.11835,1.55806,0.639693,2.49236,1.03597
2.87,0.412508,1.11898,1.55393,0.63603,2.48796,1.03614
2.88,0.411605,1.11952,1.54981,0.632342,2.48364,1.03628
2.89,0.410571,1.12006,1.5457,0.62864,2.47936,1.03646
2.9,0.409675,1.12061,1.5416,0.624934,2.47507,1.03664
2.91,0.408632,1.1212,1.53751,0.621304,2.47075,1.0368
2.92,0.407755,1.12177,1.53343,0.617692,2.46646,1.03694
2.93,0.406729,1.12241,1.52936,0.614091,2.46215,1.03714
2.94,0.405824,1.12305,1.5253,0.610491,2.45781,1.03732
2.95,0.404764,1.12367,1.52124,0.606897,2.45349,1.03748
2.96,0.40392,1.12425,1.5172,0.603288,2.4492,1.03763
2.97,0.402845,1.1249,1.51317,0.599691,2.44488,1.03783
2.98,0.401913,1.12555,1.50915,0.596116,2.44056,1.03801
2.99,0.400866,1.12617,1.50513,0.592565,2.43628,1.03816
3,0.399945,1.1268,1.50113,0.589005,2.43198,1.03833
3.01,0.398893,1.12748,1.49714,0.585461,2.42767,1.03853
3.02,0.397828,1.12814,1.49315,0.58194,2.42339,1.0387
3.03,0.396882,1.12875,1.48918,0.578445,2.41918,1.03886
3.04,0.39578,1.12938,1.48522,0.574946,2.41496,1.03904
3.05,0.394794,1.13003,1.48126,0.571419,2.41073,1.03923
3.06,0.393732,1.13064,1.47732,0.567891,2.40651,1.03941
3.07,0.392635,1.13122,1.47339,0.564373,2.40232,1.03956
3.08,0.391671,1.13187,1.46947,0.560885,2.39812,1.03976
3.09,0.390533,1.13255,1.46556,0.557427,2.39391,1.03995
3.1,0.389539,1.13319,1.46166,0.553983,2.38973,1.04013
3.11,0.388407,1.13381,1.45777,0.550555,2.38557,1.04028
3.12,0.387318,1.13451,1.45389,0.547151,2.38139,1.04049
3.13,0.386319,1.1352,1.45002,0.543755,2.37723,1.04068
3.14,0.385174,1.13584,1.44617,0.54036,2.37311,1.04086
3.15,0.384164,1.1365,1.44232,0.53699,2.36895,1.04102
3.16,0.383012,1.13724,1.43849,0.533653,2.36481,1.04123
3.17,0.381663,1.13794,1.43466,0.530348,2.36072,1.04142
3.18,0.380434,1.13857,1.43085,0.527039,2.3567,1.0416
3.19,0.379431,1.13921,1.42706,0.523753,2.35268,1.04177
3.2,0.378227,1.13993,1.42327,0.520502,2.34864,1.04198
3.21,0.377058,1.14067,1.41949,0.517288,2.3446,1.04218
3.22,0.376076,1.14139,1.41573,0.514103,2.34059,1.04236
3.23,0.374852,1.14208,1.41197,0.510887,2.33656,1.04253
3.24,0.373655,1.14282,1.40823,0.507648,2.33251,1.04274
3.25,0.372586,1.14353,1.4045,0.504399,2.32848,1.04294
3.26,0.371395,1.1442,1.40078,0.501147,2.32448,1.04313
3.27,0.370131,1.14489,1.39707,0.49794,2.32046,1.0433
3.28,0.368983,1.14567,1.39338,0.494786,2.31645,1.04351
3.29,0.367818,1.14643,1.3897,0.491651,2.31246,1.04372
3.3,0.366562,1.14717,1.38602,0.488511,2.30848,1.04391
3.31,0.365561,1.14791,1.38236,0.485386,2.30449,1.04408
3.32,0.364257,1.14868,1.37872,0.482268,2.30051,1.04429
3.33,0.363037,1.14941,1.37508,0.479135,2.29659,1.0445
3.34,0.361825,1.15011,1.37146,0.476014,2.2927,1.0447
3.35,0.360481,1.15082,1.36784,0.472921,2.2888,1.04488
3.36,0.359402,1.15158,1.36425,0.469868,2.2849,1.04508
3.37,0.358114,1.15236,1.36066,0.466832,2.28101,1.0453
3.38,0.356853,1.1531,1.35709,0.463789,2.27715,1.0455
3.39,0.355629,1.15384,1.35352,0.46076,2.27328,1.04568
3.4,0.354419,1.1546,1.34997,0.457762,2.26942,1.04587
3.41,0.353131,1.15541,1.34644,0.454797,2.26557,1.04609
3.42,0.351839,1.15619,1.34291,0.451852,2.26176,1.0463
3.43,0.350571,1.15694,1.3394,0.44887,2.25793,1.04649
3.44,0.349125,1.15767,1.3359,0.445884,2.25411,1.04666
3.45,0.348034,1.15845,1.33242,0.442911,2.25032,1.0469
3.46,0.346719,1.1592,1.32895,0.439954,2.24655,1.04711
3.47,0.345429,1.15998,1.32549,0.437018,2.24274,1.0473
3.48,0.344139,1.16074,1.32204,0.43413,2.23898,1.04748
3.49,0.342743,1.16151,1.31861,0.431255,2.23527,1.04769
3.5,0.341575,1.16227,1.31518,0.428403,2.23162,1.04791
3.51,0.340222,1.16302,1.31178,0.425568,2.22797,1.04811
3.52,0.33889,1.16378,1.30838,0.422767,2.22431,1.0483
3.53,0.337523,1.16456,1.305,0.419981,2.22064,1.04849
3.54,0.336384,1.16536,1.30163,0.417187,2.217,1.04872
3.55,0.334985,1.16616,1.29828,0.414414,2.21336,1.04893
3.56,0.333616,1.16697,1.29493,0.411671,2.2097,1.04912
3.57,0.33208,1.16778,1.29161,0.408959,2.20605,1.0493
3.58,0.33089,1.16864,1.28829,0.406277,2.20243,1.04952
3.59,0.329534,1.16949,1.28499,0.403603,2.19882,1.04974
3.6,0.328161,1.17033,1.2817,0.400939,2.1952,1.04994
3.61,0.326811,1.17118,1.27843,0.398306,2.19159,1.05013
3.62,0.325425,1.17204,1.27517,0.395706,2.18801,1.05033
3.63,0.324186,1.17295,1.27192,0.393139,2.18445,1.05055
3.64,0.322787,1.17387,1.26869,0.390606,2.18086,1.05077
3.65,0.321278,1.17476,1.26547,0.388068,2.1773,1.05096
3.66,0.320076,1.1756,1.26226,0.385499,2.17377,1.05115
3.67,0.318585,1.17644,1.25907,0.382916,2.17029,1.05137
3.68,0.31721,1.17727,1.25589,0.380325,2.16681,1.05159
3.69,0.315996,1.17809,1.25273,0.377733,2.16334,1.0518
3.7,0.314523,1.17889,1.24957,0.375143,2.15987,1.052
3.71,0.313128,1.17972,1.24644,0.372638,2.15642,1.05218
