time,velocity,ratio,centerX,Xmax,Xmin,Ymax
0,0,1,41,40,42,1
0.01,0.0192625,1,40.9999,39.9999,41.9999,1
0.02,0.0374015,1.00001,40.9996,39.9996,41.9996,1
0.03,0.0545334,1.00001,40.9992,39.9992,41.9991,1
0.04,0.0707175,1.00002,40.9986,39.9986,41.9985,1
0.05,0.0860301,1.00003,40.9978,39.9978,41.9977,0.999999
0.06,0.100559,1.00004,40.9968,39.9969,41.9968,0.999998
0.07,0.114359,1.00005,40.9958,39.9958,41.9957,0.999997
0.08,0.127486,1.00005,40.9946,39.9946,41.9945,0.999995
0.09,0.139994,1.00006,40.9932,39.9933,41.9932,0.999991
0.1,0.151922,1.00006,40.9918,39.9919,41.9917,0.999989
0.11,0.163064,1.00009,40.9902,39.9903,41.9901,1.00001
0.12,0.17402,1.00011,40.9885,39.9886,41.9885,1.00003
0.13,0.184504,1.00012,40.9867,39.9869,41.9867,1.00005
0.14,0.194494,1.00013,40.9849,39.985,41.9849,1.00007
0.15,0.204094,1.00013,40.9829,39.9831,41.983,1.00008
0.16,0.213293,1.00014,40.9808,39.981,41.9809,1.00008
0.17,0.222125,1.00016,40.9786,39.9789,41.9787,1.00009
0.18,0.230571,1.0002,40.9763,39.9767,41.9765,1.00009
0.19,0.238691,1.00027,40.974,39.9744,41.9741,1.00013
0.2,0.246523,1.00035,40.9716,39.972,41.9717,1.00016
0.21,0.254029,1.00042,40.9691,39.9696,41.9691,1.00019
0.22,0.261263,1.0005,40.9665,39.9671,41.9665,1.00022
0.23,0.268126,1.0006,40.9639,39.9645,41.9638,1.00025
0.24,0.274813,1.00071,40.9612,39.9619,41.961,1.00026
0.25,0.281308,1.00084,40.9584,39.9592,41.9581,1.0003
0.26,0.287568,1.001,40.9555,39.9564,41.9552,1.00036
0.27,0.293617,1.00114,40.9526,39.9536,41.9522,1.0004
0.28,0.299401,1.00128,40.9497,39.9508,41.9491,1.00044
0.29,0.305069,1.00143,40.9466,39.9479,41.9459,1.00048
0.3,0.310441,1.00159,40.9436,39.9449,41.9427,1.00052
0.31,0.315701,1.00178,40.9404,39.9418,41.9395,1.00059
0.32,0.320788,1.00194,40.9373,39.9387,41.9362,1.00065
0.33,0.325628,1.00214,40.934,39.9356,41.9327,1.00071
0.34,0.330361,1.00235,40.9308,39.9325,41.9293,1.00075
0.35,0.334944,1.00255,40.9274,39.9292,41.9258,1.00081
0.36,0.33949,1.00276,40.9241,39.926,41.9223,1.00089
0.37,0.343804,1.00295,40.9206,39.9227,41.9188,1.00097
0.38,0.347883,1.00315,40.9172,39.9194,41.9152,1.00103
0.39,0.351904,1.00336,40.9137,39.916,41.9115,1.00109
0.4,0.355732,1.0036,40.9102,39.9126,41.9078,1.00118
0.41,0.359545,1.00384,40.9066,39.9092,41.9041,1.00127
0.42,0.363264,1.00409,40.903,39.9058,41.9003,1.00135
0.43,0.366847,1.00435,40.8993,39.9023,41.8965,1.00142
0.44,0.370369,1.00462,40.8956,39.8988,41.8926,1.0015
0.45,0.373751,1.0049,40.8919,39.8952,41.8887,1.0016
0.46,0.377031,1.00519,40.8882,39.8917,41.8847,1.00169
0.47,0.38018,1.00549,40.8844,39.8881,41.8807,1.00177
0.48,0.383191,1.00577,40.8806,39.8845,41.8767,1.00185
0.49,0.386261,1.00606,40.8767,39.8808,41.8727,1.00196
0.5,0.38919,1.00638,40.8728,39.8771,41.8685,1.00206
0.51,0.391998,1.00667,40.8689,39.8734,41.8644,1.00215
0.52,0.39481,1.00694,40.865,39.8696,41.8603,1.00223
0.53,0.397527,1.0072,40.8611,39.8659,41.8563,1.00235
0.54,0.400211,1.00746,40.8571,39.8621,41.8521,1.00245
0.55,0.402817,1.00774,40.8531,39.8583,41.848,1.00254
0.56,0.405358,1.00802,40.849,39.8544,41.8437,1.00263
0.57,0.407801,1.00832,40.8449,39.8505,41.8395,1.00275
0.58,0.410194,1.00864,40.8409,39.8466,41.8352,1.00286
0.59,0.412494,1.00897,40.8367,39.8427,41.8308,1.00295
0.6,0.414837,1.00928,40.8326,39.8388,41.8264,1.00305
0.61,0.417114,1.00962,40.8285,39.8348,41.822,1.00317
0.62,0.419213,1.00998,40.8243,39.8308,41.8175,1.00327
0.63,0.421368,1.01031,40.8201,39.8268,41.8131,1.00336
0.64,0.423514,1.01065,40.8159,39.8228,41.8086,1.00348
0.65,0.425512,1.01102,40.8116,39.8187,41.804,1.0036
0.66,0.427565,1.01136,40.8073,39.8146,41.7994,1.0037
0.67,0.429578,1.01164,40.8031,39.8105,41.795,1.00379
0.68,0.431469,1.01198,40.7988,39.8064,41.7904,1.00392
0.69,0.433373,1.01232,40.7944,39.8022,41.7859,1.00404
0.7,0.435231,1.01265,40.7901,39.7981,41.7813,1.00414
0.71,0.437044,1.01297,40.7857,39.7939,41.7767,1.00424
0.72,0.438799,1.01334,40.7814,39.7897,41.772,1.00437
0.73,0.440551,1.0137,40.777,39.7855,41.7673,1.00449
0.74,0.442231,1.01402,40.7725,39.7813,41.7627,1.00458
0.75,0.443874,1.01439,40.7681,39.7771,41.758,1.00471
0.76,0.445487,1.01478,40.7637,39.7729,41.7533,1.00483
0.77,0.447042,1.01512,40.7592,39.7686,41.7486,1.00493
0.78,0.448569,1.01552,40.7547,39.7644,41.7438,1.00503
0.79,0.450069,1.01593,40.7502,39.7601,41.7389,1.00516
0.8,0.451477,1.01625,40.7457,39.7558,41.7342,1.00528
0.81,0.452929,1.01648,40.7412,39.7515,41.7296,1.00537
0.82,0.454349,1.0168,40.7367,39.7472,41.7249,1.00549
0.83,0.455724,1.01715,40.7321,39.7428,41.7202,1.00562
0.84,0.45714,1.01747,40.7276,39.7385,41.7154,1.00572
0.85,0.458495,1.01781,40.723,39.7342,41.7106,1.00582
0.86,0.459904,1.01821,40.7184,39.7298,41.7057,1.00595
0.87,0.461223,1.01855,40.7138,39.7254,41.7009,1.00606
0.88,0.462527,1.01888,40.7092,39.721,41.696,1.00615
0.89,0.463762,1.01928,40.7045,39.7166,41.6911,1.00628
0.9,0.46505,1.01964,40.6999,39.7121,41.6862,1.0064
0.91,0.466309,1.02,40.6952,39.7077,41.6812,1.0065
0.92,0.467596,1.0204,40.6906,39.7032,41.6762,1.00661
0.93,0.468846,1.02076,40.6859,39.6987,41.6713,1.00674
0.94,0.470074,1.02105,40.6812,39.6942,41.6664,1.00684
0.95,0.471263,1.02136,40.6765,39.6897,41.6614,1.00693
0.96,0.472413,1.02172,40.6718,39.6851,41.6564,1.00707
0.97,0.473525,1.02203,40.6671,39.6806,41.6515,1.00718
0.98,0.47463,1.02236,40.6623,39.676,41.6465,1.00727
0.99,0.475717,1.02273,40.6576,39.6714,41.6414,1.00739
1,0.47676,1.02305,40.6528,39.6669,41.6365,1.00751
1.01,0.477823,1.02338,40.648,39.6623,41.6314,1.0076
1.02,0.478813,1.02373,40.6432,39.6577,41.6264,1.00771
1.03,0.47983,1.02407,40.6385,39.6531,41.6213,1.00783
1.04,0.480859,1.02443,40.6337,39.6485,41.6162,1.00792
1.05,0.481793,1.02476,40.6288,39.6439,41.6112,1.00801
1.06,0.482792,1.02506,40.624,39.6393,41.6062,1.00814
1.07,0.483674,1.02533,40.6192,39.6346,41.6013,1.00824
1.08,0.484637,1.02559,40.6143,39.63,41.5963,1.00831
1.09,0.485588,1.02589,40.6095,39.6253,41.5912,1.00844
1.1,0.486525,1.02619,40.6046,39.6206,41.5862,1.00854
1.11,0.487471,1.02651,40.5998,39.6159,41.5811,1.00862
1.12,0.488428,1.02684,40.5949,39.6112,41.576,1.00873
1.13,0.489356,1.02716,40.59,39.6066,41.5709,1.00884
1.14,0.490232,1.02748,40.5851,39.6018,41.5657,1.00892
1.15,0.491091,1.02779,40.5802,39.5971,41.5606,1.00902
1.16,0.491974,1.02813,40.5753,39.5924,41.5554,1.00913
1.17,0.492881,1.02846,40.5704,39.5876,41.5502,1.00922
1.18,0.493766,1.02874,40.5654,39.5828,41.5451,1.0093
1.19,0.494665,1.02904,40.5605,39.5781,41.54,1.00942
1.2,0.495535,1.02933,40.5555,39.5733,41.5348,1.00951
1.21,0.496389,1.02958,40.5506,39.5685,41.5296,1.00959
1.22,0.497208,1.02986,40.5456,39.5636,41.5245,1.0097
1.23,0.497973,1.03016,40.5406,39.5588,41.5193,1.00979
1.24,0.498749,1.03041,40.5357,39.554,41.5141,1.00986
1.25,0.499536,1.03071,40.5307,39.5491,41.5089,1.00998
1.26,0.50032,1.03101,40.5257,39.5443,41.5037,1.01007
1.27,0.501226,1.03125,40.5207,39.5394,41.4985,1.01013
1.28,0.501951,1.03156,40.5156,39.5346,41.4932,1.01024
1.29,0.502642,1.03187,40.5106,39.5297,41.4879,1.01033
1.3,0.503364,1.03208,40.5056,39.5248,41.4828,1.0104
1.31,0.504066,1.0323,40.5006,39.52,41.4777,1.0105
1.32,0.504758,1.03256,40.4955,39.5151,41.4726,1.01059
1.33,0.505444,1.03279,40.4905,39.5103,41.4674,1.01066
1.34,0.50611,1.03303,40.4854,39.5054,41.4622,1.01075
1.35,0.50678,1.03329,40.4803,39.5004,41.457,1.01084
1.36,0.50732,1.03353,40.4753,39.4955,41.4517,1.01091
1.37,0.508005,1.0338,40.4702,39.4906,41.4465,1.01099
1.38,0.508676,1.03412,40.4651,39.4857,41.4412,1.01109
1.39,0.50933,1.03438,40.46,39.4808,41.4359,1.01116
1.4,0.509985,1.03466,40.4549,39.4758,41.4306,1.01123
1.41,0.510688,1.03497,40.4498,39.4709,41.4252,1.01133
1.42,0.511349,1.0352,40.4447,39.4659,41.42,1.0114
1.43,0.512023,1.03541,40.4396,39.461,41.4147,1.01147
1.44,0.51268,1.03569,40.4345,39.456,41.4094,1.01157
1.45,0.513326,1.03592,40.4294,39.451,41.4041,1.01163
1.46,0.513951,1.03612,40.4242,39.446,41.3988,1.0117
1.47,0.51457,1.03638,40.4191,39.441,41.3935,1.01179
1.48,0.515162,1.03658,40.4139,39.4359,41.3882,1.01186
1.49,0.515734,1.03679,40.4088,39.4309,41.3829,1.01192
1.5,0.516279,1.03705,40.4036,39.4258,41.3775,1.01201
1.51,0.516842,1.03726,40.3985,39.4208,41.3722,1.01208
1.52,0.517342,1.03748,40.3933,39.4157,41.3668,1.01213
1.53,0.51794,1.03773,40.3881,39.4106,41.3615,1.01222
1.54,0.518548,1.03789,40.3829,39.4056,41.3563,1.01228
1.55,0.519156,1.03802,40.3777,39.4005,41.351,1.01233
1.56,0.519744,1.03824,40.3725,39.3955,41.3457,1.01242
1.57,0.52031,1.03843,40.3673,39.3904,41.3404,1.01248
1.58,0.520889,1.03862,40.3621,39.3854,41.3351,1.01253
1.59,0.521462,1.03885,40.3569,39.3803,41.3297,1.01262
1.6,0.522001,1.03902,40.3517,39.3751,41.3244,1.01267
1.61,0.52246,1.03921,40.3465,39.37,41.319,1.01272
1.62,0.522977,1.03947,40.3413,39.3649,41.3136,1.01281
1.63,0.523528,1.03967,40.336,39.3598,41.3083,1.01286
1.64,0.524076,1.03988,40.3308,39.3547,41.3028,1.01291
1.65,0.524648,1.04012,40.3256,39.3496,41.2974,1.01299
1.66,0.525212,1.04028,40.3203,39.3444,41.2921,1.01305
1.67,0.525803,1.04044,40.3151,39.3393,41.2867,1.01309
1.68,0.526369,1.04065,40.3098,39.3341,41.2813,1.01317
1.69,0.526945,1.04081,40.3045,39.329,41.276,1.01322
1.7,0.527481,1.04099,40.2993,39.3238,41.2705,1.01326
1.71,0.528024,1.04118,40.294,39.3186,41.2651,1.01334
1.72,0.528559,1.04131,40.2887,39.3134,41.2597,1.01339
1.73,0.529049,1.04148,40.2834,39.3082,41.2543,1.01343
1.74,0.529522,1.04166,40.2781,39.3029,41.2489,1.01351
1.75,0.53001,1.04184,40.2728,39.2977,41.2434,1.01355
1.76,0.530503,1.04201,40.2675,39.2925,41.2379,1.01359
1.77,0.530931,1.04215,40.2622,39.2873,41.2326,1.01366
1.78,0.531432,1.04223,40.2569,39.2821,41.2273,1.01371
1.79,0.531948,1.04235,40.2516,39.2768,41.2219,1.01375
1.8,0.532435,1.0425,40.2463,39.2716,41.2166,1.01382
1.81,0.532917,1.04264,40.2409,39.2664,41.2112,1.01385
1.82,0.533397,1.04282,40.2356,39.2612,41.2057,1.0139
1.83,0.533857,1.04299,40.2303,39.256,41.2003,1.01396
1.84,0.53429,1.04311,40.2249,39.2507,41.1949,1.014
1.85,0.534689,1.04329,40.2196,39.2454,41.1894,1.01405
1.86,0.535111,1.04347,40.2142,39.2402,41.1839,1.01411
1.87,0.535583,1.04367,40.2089,39.235,41.1784,1.01414
1.88,0.536054,1.04386,40.2035,39.2297,41.1729,1.01419
1.89,0.536542,1.044,40.1982,39.2244,41.1675,1.01425
1.9,0.537011,1.04412,40.1928,39.2192,41.162,1.01428
1.91,0.537498,1.04428,40.1874,39.2139,41.1565,1.01433
1.92,0.537959,1.04442,40.1821,39.2086,41.1511,1.01438
1.93,0.538423,1.04456,40.1767,39.2033,41.1456,1.01441
1.94,0.538841,1.04472,40.1713,39.198,41.1401,1.01446
1.95,0.5393,1.04484,40.1659,39.1926,41.1346,1.01451
1.96,0.539719,1.04495,40.1605,39.1873,41.1291,1.01453
1.97,0.539778,1.0451,40.1551,39.1819,41.1236,1.01459
1.98,0.54016,1.04525,40.1497,39.1766,41.118,1.01464
1.99,0.540618,1.04538,40.1443,39.1713,41.1125,1.01466
2,0.541079,1.04548,40.1389,39.1659,41.1071,1.01472
2.01,0.541563,1.04554,40.1335,39.1606,41.1017,1.01476
2.02,0.5421,1.04562,40.1281,39.1552,41.0962,1.01477
2.03,0.542558,1.04574,40.1226,39.1499,41.0908,1.01484
2.04,0.543023,1.04586,40.1172,39.1445,41.0853,1.01488
2.05,0.54347,1.04599,40.1118,39.1392,41.0798,1.01489
2.06,0.543904,1.04613,40.1063,39.1339,41.0743,1.01496
2.07,0.544316,1.04625,40.1009,39.1285,41.0687,1.01499
2.08,0.544678,1.04636,40.0955,39.1231,41.0632,1.01501
2.09,0.545019,1.04651,40.09,39.1177,41.0576,1.01507
2.1,0.545436,1.04667,40.0846,39.1124,41.052,1.01509
2.11,0.54586,1.0468,40.0791,39.107,41.0465,1.01512
2.12,0.546301,1.0469,40.0736,39.1016,41.041,1.01518
2.13,0.546729,1.047,40.0682,39.0962,41.0354,1.01519
2.14,0.547149,1.04711,40.0627,39.0908,41.0299,1.01523
2.15,0.54757,1.04722,40.0572,39.0854,41.0244,1.01528
2.16,0.547984,1.04732,40.0518,39.08,41.0188,1.01529
2.17,0.548412,1.04744,40.0463,39.0746,41.0132,1.01533
2.18,0.548804,1.04754,40.0408,39.0691,41.0077,1.01537
2.19,0.54914,1.04762,40.0353,39.0636,41.0021,1.01538
2.2,0.549605,1.04772,40.0298,39.0582,40.9965,1.01543
2.21,0.549894,1.04785,40.0243,39.0527,40.9909,1.01547
2.22,0.550238,1.04793,40.0188,39.0473,40.9853,1.01547
2.23,0.550588,1.04798,40.0133,39.0418,40.9799,1.01553
2.24,0.550978,1.04802,40.0078,39.0363,40.9744,1.01556
2.25,0.55136,1.04807,40.0023,39.0309,40.9689,1.01556
2.26,0.551713,1.04816,39.9968,39.0254,40.9633,1.01562
2.27,0.552072,1.04826,39.9913,39.02,40.9578,1.01565
2.28,0.552417,1.04837,39.9857,39.0146,40.9522,1.01567
2.29,0.552744,1.0485,39.9802,39.0091,40.9466,1.01572
2.3,0.553042,1.04858,39.9747,39.0036,40.941,1.01573
2.31,0.553017,1.04868,39.9692,38.9981,40.9354,1.01577
2.32,0.553299,1.04881,39.9636,38.9927,40.9297,1.0158
2.33,0.553658,1.04895,39.9581,38.9872,40.9241,1.01581
2.34,0.554027,1.04906,39.9526,38.9818,40.9185,1.01585
2.35,0.554405,1.04916,39.947,38.9763,40.9129,1.01589
2.36,0.554754,1.04924,39.9415,38.9709,40.9073,1.0159
2.37,0.554744,1.04935,39.9359,38.9654,40.9017,1.01595
2.38,0.555105,1.04945,39.9304,38.9599,40.8961,1.01598
2.39,0.555487,1.04954,39.9248,38.9544,40.8904,1.01598
2.4,0.555857,1.04966,39.9193,38.9489,40.8848,1.01603
2.41,0.556135,1.04974,39.9137,38.9434,40.8792,1.01605
2.42,0.556429,1.0498,39.9081,38.9378,40.8736,1.01606
2.43,0.556671,1.04991,39.9026,38.9323,40.8679,1.01611
2.44,0.556983,1.05001,39.897,38.9268,40.8622,1.01613
2.45,0.557328,1.05004,39.8914,38.9212,40.8567,1.01615
2.46,0.557689,1.05008,39.8859,38.9157,40.8512,1.01619
2.47,0.558073,1.05012,39.8803,38.9102,40.8456,1.0162
2.48,0.558419,1.05018,39.8747,38.9046,40.84,1.01623
2.49,0.55876,1.05026,39.8691,38.8991,40.8344,1.01627
2.5,0.559109,1.05035,39.8635,38.8936,40.8287,1.01627
2.51,0.559441,1.05046,39.8579,38.8881,40.8231,1.01632
2.52,0.559574,1.05056,39.8523,38.8825,40.8174,1.01635
2.53,0.55983,1.05062,39.8468,38.877,40.8117,1.01635
2.54,0.560076,1.05073,39.8412,38.8714,40.806,1.0164
2.55,0.560266,1.05086,39.8356,38.8659,40.8003,1.01642
2.56,0.560614,1.05093,39.8299,38.8603,40.7947,1.01644
2.57,0.560986,1.05102,39.8243,38.8548,40.789,1.01648
2.58,0.561384,1.0511,39.8187,38.8492,40.7834,1.0165
2.59,0.561697,1.05117,39.8131,38.8436,40.7777,1.01652
2.6,0.562035,1.05126,39.8075,38.8381,40.7721,1.01656
2.61,0.562399,1.05133,39.8019,38.8325,40.7663,1.01657
2.62,0.562749,1.05142,39.7962,38.8269,40.7607,1.0166
2.63,0.563089,1.05151,39.7906,38.8213,40.755,1.01663
2.64,0.563391,1.05154,39.785,38.8157,40.7493,1.01663
2.65,0.563628,1.05164,39.7794,38.81,40.7436,1.01668
2.66,0.564019,1.05173,39.7737,38.8044,40.7378,1.0167
2.67,0.564347,1.05174,39.7681,38.7988,40.7322,1.0167
2.68,0.564677,1.05176,39.7624,38.7932,40.7266,1.01674
2.69,0.565046,1.05178,39.7568,38.7876,40.721,1.01676
2.7,0.565375,1.05181,39.7511,38.782,40.7153,1.01677
2.71,0.565698,1.05188,39.7455,38.7763,40.7097,1.01681
2.72,0.566026,1.05195,39.7398,38.7707,40.7039,1.01682
2.73,0.566336,1.05204,39.7342,38.7652,40.6983,1.01684
2.74,0.56663,1.05215,39.7285,38.7596,40.6925,1.01688
2.75,0.56686,1.0522,39.7228,38.7539,40.6868,1.01687
2.76,0.567029,1.05228,39.7172,38.7483,40.681,1.01692
2.77,0.567278,1.05241,39.7115,38.7426,40.6752,1.01694
2.78,0.567591,1.05248,39.7058,38.737,40.6695,1.01694
2.79,0.567922,1.05257,39.7001,38.7314,40.6638,1.01699
2.8,0.568198,1.05265,39.6945,38.7258,40.6581,1.017
2.81,0.568477,1.05271,39.6888,38.7202,40.6524,1.01702
2.82,0.568757,1.05281,39.6831,38.7145,40.6466,1.01706
2.83,0.569076,1.05288,39.6774,38.7089,40.6409,1.01706
2.84,0.569184,1.05295,39.6717,38.7033,40.6351,1.01709
2.85,0.569512,1.05305,39.666,38.6976,40.6294,1.01712
2.86,0.569776,1.05308,39.6603,38.6919,40.6236,1.01712
2.87,0.569927,1.05317,39.6546,38.6862,40.6178,1.01716
2.88,0.570145,1.05325,39.6489,38.6805,40.612,1.01718
2.89,0.570453,1.05324,39.6432,38.6748,40.6064,1.01718
2.9,0.570754,1.05328,39.6375,38.6692,40.6007,1.01722
2.91,0.571094,1.05331,39.6318,38.6635,40.595,1.01723
2.92,0.571391,1.05333,39.6261,38.6578,40.5893,1.01725
2.93,0.571702,1.05341,39.6204,38.6521,40.5835,1.01729
2.94,0.572001,1.05347,39.6147,38.6465,40.5778,1.01729
2.95,0.572302,1.05355,39.6089,38.6408,40.572,1.01732
2.96,0.572549,1.05366,39.6032,38.6352,40.5662,1.01735
2.97,0.572745,1.0537,39.5975,38.6294,40.5604,1.01734
2.98,0.572887,1.05379,39.5918,38.6237,40.5546,1.01738
2.99,0.573084,1.0539,39.586,38.618,40.5488,1.0174
3,0.573347,1.05394,39.5803,38.6124,40.543,1.0174
3.01,0.57363,1.05402,39.5746,38.6067,40.5373,1.01745
3.02,0.57392,1.05408,39.5688,38.601,40.5315,1.01745
3.03,0.574163,1.05413,39.5631,38.5953,40.5257,1.01747
3.04,0.574405,1.05422,39.5573,38.5896,40.5199,1.0175
3.05,0.574676,1.05426,39.5516,38.5839,40.5141,1.0175
3.06,0.574935,1.05434,39.5459,38.5782,40.5084,1.01753
3.07,0.575183,1.05442,39.5401,38.5725,40.5025,1.01755
3.08,0.575546,1.05443,39.5344,38.5667,40.4967,1.01754
3.09,0.575656,1.05454,39.5286,38.5609,40.4909,1.01759
3.1,0.575823,1.05459,39.5228,38.5552,40.485,1.0176
3.11,0.57606,1.05457,39.5171,38.5495,40.4794,1.01761
3.12,0.576308,1.05459,39.5113,38.5437,40.4736,1.01765
3.13,0.576584,1.0546,39.5056,38.538,40.4679,1.01765
3.14,0.576814,1.05463,39.4998,38.5322,40.4622,1.01767
3.15,0.57706,1.0547,39.494,38.5265,40.4563,1.0177
3.16,0.577305,1.05474,39.4882,38.5208,40.4505,1.01769
3.17,0.57752,1.05484,39.4825,38.5151,40.4447,1.01774
3.18,0.577707,1.05494,39.4767,38.5094,40.4389,1.01776
3.19,0.577838,1.05498,39.4709,38.5036,40.433,1.01776
3.2,0.577808,1.05509,39.4651,38.4978,40.4272,1.0178
3.21,0.578006,1.05517,39.4594,38.4921,40.4213,1.01781
3.22,0.578251,1.05523,39.4536,38.4864,40.4155,1.01783
3.23,0.578521,1.05532,39.4478,38.4807,40.4097,1.01786
3.24,0.57877,1.05537,39.442,38.475,40.4039,1.01786
3.25,0.578943,1.05545,39.4362,38.4692,40.3981,1.0179
3.26,0.579183,1.05554,39.4304,38.4635,40.3922,1.01792
3.27,0.579368,1.05558,39.4246,38.4577,40.3864,1.01791
3.28,0.579621,1.05569,39.4189,38.452,40.3805,1.01796
3.29,0.579839,1.05575,39.4131,38.4462,40.3747,1.01797
3.3,0.57998,1.05579,39.4073,38.4404,40.3688,1.01798
3.31,0.580112,1.05588,39.4015,38.4346,40.3629,1.01802
3.32,0.580302,1.05589,39.3957,38.4288,40.3571,1.01802
3.33,0.580551,1.0559,39.3899,38.4231,40.3514,1.01805
3.34,0.58081,1.05594,39.384,38.4173,40.3456,1.01807
3.35,0.581064,1.05592,39.3782,38.4115,40.3398,1.01806
3.36,0.581285,1.05601,39.3724,38.4057,40.3339,1.01811
3.37,0.581531,1.05607,39.3666,38.3999,40.3281,1.01813
3.38,0.581762,1.05612,39.3608,38.3942,40.3222,1.01813
3.39,0.581981,1.05624,39.355,38.3884,40.3163,1.01817
3.4,0.58215,1.0563,39.3492,38.3826,40.3105,1.01818
3.41,0.582247,1.05637,39.3433,38.3768,40.3046,1.0182
3.42,0.582405,1.05647,39.3375,38.371,40.2986,1.01823
3.43,0.582551,1.05649,39.3317,38.3653,40.2928,1.01822
3.44,0.582698,1.05658,39.3259,38.3595,40.287,1.01827
3.45,0.582867,1.05665,39.32,38.3537,40.2811,1.01829
3.46,0.583113,1.05668,39.3142,38.3479,40.2752,1.0183
3.47,0.583348,1.05678,39.3084,38.3421,40.2694,1.01834
3.48,0.583585,1.05682,39.3025,38.3363,40.2635,1.01834
3.49,0.58383,1.05688,39.2967,38.3305,40.2576,1.01836
3.5,0.584112,1.05698,39.2909,38.3247,40.2517,1.01839
3.51,0.584297,1.05699,39.285,38.3188,40.2458,1.01838
3.52,0.584404,1.05708,39.2792,38.313,40.2398,1.01842
3.53,0.584544,1.05711,39.2733,38.3071,40.234,1.01844
3.54,0.584768,1.05707,39.2675,38.3013,40.2282,1.01843
3.55,0.585002,1.05711,39.2616,38.2955,40.2224,1.01847
3.56,0.585266,1.0571,39.2558,38.2896,40.2165,1.01848
3.57,0.585481,1.05713,39.2499,38.2838,40.2107,1.01849
3.58,0.585711,1.0572,39.2441,38.278,40.2048,1.01852
3.59,0.585937,1.05722,39.2382,38.2721,40.1989,1.01851
3.6,0.58614,1.05733,39.2324,38.2663,40.193,1.01855
3.61,0.58631,1.05742,39.2265,38.2605,40.1871,1.01857
3.62,0.586413,1.05746,39.2206,38.2547,40.1811,1.01857
3.63,0.58648,1.05756,39.2148,38.2488,40.1752,1.01861
3.64,0.586714,1.05761,39.2089,38.243,40.1693,1.01861
3.65,0.586938,1.05766,39.203,38.2372,40.1634,1.01863
3.66,0.587183,1.05776,39.1972,38.2314,40.1575,1.01865
3.67,0.587389,1.05777,39.1913,38.2256,40.1516,1.01864
3.68,0.587541,1.05787,39.1854,38.2197,40.1457,1.01868
3.69,0.587763,1.05794,39.1796,38.2139,40.1397,1.0187
3.7,0.587647,1.05797,39.1737,38.208,40.1338,1.0187
3.71,0.587885,1.05808,39.1678,38.2022,40.1279,1.01874
3.72,0.588077,1.05811,39.1619,38.1963,40.1219,1.01874
3.73,0.588152,1.05817,39.156,38.1905,40.116,1.01876
3.74,0.588279,1.05823,39.1502,38.1846,40.11,1.01878
