time,velocity,ratio,centerX,Xmax,Xmin,Ymax
0,0,1,13.5,12.5,14.5,1
0.01,0.0192143,0.999989,13.4999,12.4999,14.4999,1.00001
0.02,0.0372826,1,13.4996,12.4996,14.4997,1.00001
0.03,0.0543396,1.00001,13.4992,12.4992,14.4992,1.00002
0.04,0.0704859,1.00003,13.4986,12.4986,14.4986,1.00002
0.05,0.0857069,1.00005,13.4978,12.4978,14.4978,1.00002
0.06,0.100231,1.00006,13.4969,12.4969,14.4968,1.00002
0.07,0.114047,1.00008,13.4959,12.4959,14.4958,1.00002
0.08,0.127157,1.0001,13.4947,12.4947,14.4945,1.00002
0.09,0.139678,1.00011,13.4934,12.4934,14.4932,1.00002
0.1,0.151613,1.00012,13.492,12.492,14.4917,1.00001
0.11,0.16304,1.00015,13.4904,12.4904,14.4902,1.00002
0.12,0.173947,1.00019,13.4887,12.4888,14.4885,1.00004
0.13,0.184409,1.00022,13.487,12.487,14.4867,1.00006
0.14,0.194363,1.00024,13.4851,12.4852,14.4848,1.00007
0.15,0.203947,1.00025,13.4831,12.4832,14.4829,1.00009
0.16,0.213155,1.00024,13.481,12.4812,14.4809,1.00009
0.17,0.221931,1.00024,13.4789,12.4791,14.4788,1.00009
0.18,0.23036,1.00024,13.4766,12.4769,14.4766,1.0001
0.19,0.238458,1.00027,13.4743,12.4746,14.4743,1.00012
0.2,0.246237,1.00032,13.4719,12.4722,14.4719,1.00015
0.21,0.253726,1.00037,13.4694,12.4698,14.4694,1.00018
0.22,0.26091,1.00043,13.4668,12.4673,14.4669,1.0002
0.23,0.267895,1.00048,13.4642,12.4648,14.4643,1.00023
0.24,0.274514,1.00053,13.4615,12.4621,14.4616,1.00025
0.25,0.280985,1.0006,13.4587,12.4594,14.4588,1.00026
0.26,0.287187,1.00072,13.4559,12.4567,14.4559,1.00032
0.27,0.293235,1.00084,13.453,12.4539,14.453,1.00036
0.28,0.299068,1.00096,13.4501,12.4511,14.45,1.00041
0.29,0.30471,1.00107,13.4471,12.4482,14.4469,1.00044
0.3,0.310069,1.00118,13.444,12.4452,14.4438,1.00047
0.31,0.315275,1.00134,13.4409,12.4421,14.4405,1.00054
0.32,0.320428,1.0015,13.4377,12.439,14.4372,1.0006
0.33,0.325249,1.00165,13.4345,12.4359,14.4339,1.00066
0.34,0.330026,1.00182,13.4312,12.4328,14.4305,1.00071
0.35,0.334602,1.00201,13.4279,12.4296,14.427,1.00075
0.36,0.33906,1.00227,13.4246,12.4263,14.4235,1.00084
0.37,0.343327,1.00251,13.4212,12.4231,14.4199,1.00092
0.38,0.347428,1.00274,13.4177,12.4198,14.4163,1.00099
0.39,0.351553,1.00296,13.4142,12.4165,14.4127,1.00105
0.4,0.355405,1.00321,13.4107,12.4131,14.409,1.00113
0.41,0.359313,1.0035,13.4071,12.4097,14.4052,1.00122
0.42,0.362914,1.00378,13.4035,12.4063,14.4014,1.00131
0.43,0.366529,1.00407,13.3999,12.4029,14.3976,1.00139
0.44,0.36997,1.00436,13.3962,12.3994,14.3937,1.00147
0.45,0.373352,1.0047,13.3925,12.3959,14.3897,1.00159
0.46,0.376636,1.00503,13.3888,12.3924,14.3858,1.00169
0.47,0.379841,1.00537,13.385,12.3889,14.3818,1.00178
0.48,0.38283,1.0057,13.3812,12.3853,14.3777,1.00187
0.49,0.385798,1.00606,13.3773,12.3817,14.3736,1.00199
0.5,0.388729,1.00639,13.3735,12.378,14.3695,1.00211
0.51,0.391588,1.00671,13.3696,12.3743,14.3653,1.00222
0.52,0.394274,1.00704,13.3656,12.3705,14.3611,1.00231
0.53,0.39694,1.00741,13.3617,12.3668,14.3569,1.00245
0.54,0.399725,1.00778,13.3577,12.363,14.3527,1.00258
0.55,0.402265,1.00815,13.3537,12.3593,14.3484,1.00269
0.56,0.404798,1.00851,13.3497,12.3555,14.3442,1.00279
0.57,0.407205,1.0089,13.3456,12.3517,14.3399,1.00294
0.58,0.409578,1.00929,13.3415,12.3478,14.3355,1.00308
0.59,0.411916,1.00969,13.3374,12.344,14.3311,1.0032
0.6,0.414187,1.01008,13.3333,12.3401,14.3267,1.00331
0.61,0.41639,1.01051,13.3292,12.3362,14.3223,1.00346
0.62,0.418481,1.01094,13.325,12.3323,14.3178,1.00361
0.63,0.42056,1.01138,13.3208,12.3284,14.3133,1.00373
0.64,0.422549,1.01182,13.3166,12.3245,14.3087,1.00386
0.65,0.424608,1.01228,13.3124,12.3205,14.3041,1.00402
0.66,0.426569,1.01276,13.3081,12.3164,14.2995,1.00417
0.67,0.428509,1.0132,13.3038,12.3124,14.2948,1.0043
0.68,0.430418,1.01366,13.2996,12.3083,14.2902,1.00444
0.69,0.432235,1.01415,13.2952,12.3043,14.2855,1.00461
0.7,0.43404,1.01464,13.2909,12.3002,14.2807,1.00476
0.71,0.435793,1.01512,13.2866,12.2962,14.276,1.00489
0.72,0.437453,1.01564,13.2822,12.2921,14.2713,1.00506
0.73,0.439146,1.01617,13.2778,12.288,14.2665,1.00523
0.74,0.440766,1.01669,13.2734,12.2839,14.2617,1.00538
0.75,0.44236,1.01722,13.269,12.2799,14.2568,1.00552
0.76,0.443826,1.0178,13.2646,12.2757,14.252,1.0057
0.77,0.44535,1.01836,13.2602,12.2716,14.2471,1.00587
0.78,0.446791,1.01893,13.2557,12.2675,14.2422,1.00602
0.79,0.448194,1.01952,13.2512,12.2635,14.2373,1.00618
0.8,0.449554,1.02012,13.2467,12.2593,14.2324,1.00637
0.81,0.45086,1.02065,13.2422,12.2551,14.2275,1.00654
0.82,0.452177,1.02116,13.2377,12.2509,14.2226,1.00669
0.83,0.453451,1.0217,13.2332,12.2467,14.2177,1.00687
0.84,0.454716,1.02225,13.2287,12.2425,14.2127,1.00706
0.85,0.455982,1.02281,13.2241,12.2382,14.2078,1.00722
0.86,0.4573,1.0234,13.2196,12.234,14.2028,1.00739
0.87,0.458529,1.02401,13.215,12.2298,14.1978,1.00759
0.88,0.459715,1.02461,13.2104,12.2256,14.1927,1.00777
0.89,0.460857,1.02521,13.2058,12.2213,14.1876,1.00793
0.9,0.461995,1.02585,13.2012,12.2171,14.1825,1.00812
0.91,0.463161,1.02648,13.1966,12.2128,14.1774,1.00832
0.92,0.464275,1.02713,13.1919,12.2085,14.1722,1.00849
0.93,0.465439,1.02776,13.1873,12.2042,14.167,1.00866
0.94,0.466507,1.02844,13.1826,12.1999,14.1619,1.00887
0.95,0.467581,1.02908,13.178,12.1956,14.1567,1.00906
0.96,0.468613,1.0297,13.1733,12.1912,14.1514,1.00923
0.97,0.469585,1.03035,13.1686,12.1868,14.1462,1.00944
0.98,0.470532,1.03102,13.1639,12.1824,14.1409,1.00964
0.99,0.471514,1.03167,13.1592,12.178,14.1357,1.00983
1,0.472445,1.03235,13.1545,12.1736,14.1304,1.01002
1.01,0.473374,1.03307,13.1497,12.1693,14.1251,1.01023
1.02,0.474178,1.03376,13.145,12.1649,14.1198,1.01043
1.03,0.474959,1.03444,13.1403,12.1605,14.1144,1.0106
1.04,0.475845,1.03519,13.1355,12.1561,14.109,1.01082
1.05,0.476431,1.03591,13.1308,12.1517,14.1037,1.01103
1.06,0.477314,1.03661,13.126,12.1473,14.0983,1.01122
1.07,0.478154,1.03735,13.1212,12.1429,14.0929,1.01142
1.08,0.479003,1.03811,13.1164,12.1386,14.0876,1.01164
1.09,0.479776,1.03883,13.1116,12.1341,14.0822,1.01184
1.1,0.480713,1.03953,13.1068,12.1297,14.0767,1.01203
1.11,0.481463,1.04025,13.102,12.1252,14.0713,1.01226
1.12,0.48226,1.04095,13.0972,12.1206,14.0659,1.01246
1.13,0.482981,1.04166,13.0924,12.1161,14.0604,1.01265
1.14,0.48368,1.04242,13.0876,12.1116,14.0549,1.01288
1.15,0.484403,1.0432,13.0827,12.1072,14.0495,1.01309
1.16,0.485058,1.04395,13.0779,12.1027,14.0439,1.01329
1.17,0.485766,1.0447,13.073,12.0982,14.0384,1.0135
1.18,0.486501,1.0455,13.0682,12.0937,14.0329,1.01372
1.19,0.48722,1.04626,13.0633,12.0892,14.0274,1.01393
1.2,0.487911,1.04701,13.0584,12.0847,14.0218,1.01412
1.21,0.488549,1.04782,13.0536,12.0801,14.0163,1.01436
1.22,0.489208,1.04861,13.0487,12.0756,14.0107,1.01457
1.23,0.489826,1.04935,13.0438,12.0711,14.0051,1.01476
1.24,0.490403,1.05015,13.0389,12.0665,13.9995,1.015
1.25,0.490989,1.05092,13.034,12.0619,13.9939,1.01522
1.26,0.491501,1.05167,13.0291,12.0573,13.9883,1.01542
1.27,0.492016,1.05247,13.0241,12.0527,13.9827,1.01565
1.28,0.492574,1.05327,13.0192,12.0481,13.9771,1.01587
1.29,0.493156,1.05406,13.0143,12.0435,13.9715,1.01608
1.3,0.493762,1.05485,13.0094,12.039,13.9658,1.01628
1.31,0.494273,1.05568,13.0044,12.0344,13.9602,1.01652
1.32,0.494829,1.05651,12.9995,12.0298,13.9545,1.01673
1.33,0.495336,1.05731,12.9945,12.0253,13.9489,1.01693
1.34,0.495852,1.05817,12.9896,12.0207,13.9432,1.01718
1.35,0.496286,1.05904,12.9846,12.0162,13.9375,1.0174
1.36,0.496735,1.05989,12.9797,12.0116,13.9318,1.0176
1.37,0.497142,1.06079,12.9747,12.007,13.9261,1.01784
1.38,0.497585,1.06165,12.9697,12.0024,13.9203,1.01807
1.39,0.497949,1.06245,12.9648,11.9977,13.9146,1.01828
1.4,0.49841,1.0633,12.9598,11.9931,13.9089,1.01852
1.41,0.49885,1.06418,12.9548,11.9885,13.9031,1.01875
1.42,0.499274,1.06504,12.9498,11.9839,13.8974,1.01897
1.43,0.499692,1.06593,12.9448,11.9793,13.8916,1.0192
1.44,0.50015,1.06682,12.9398,11.9747,13.8858,1.01944
1.45,0.500537,1.0677,12.9348,11.97,13.8801,1.01966
1.46,0.500976,1.06859,12.9298,11.9654,13.8743,1.01988
1.47,0.501344,1.06949,12.9248,11.9608,13.8685,1.02013
1.48,0.501724,1.07039,12.9198,11.9561,13.8627,1.02036
1.49,0.502107,1.07127,12.9148,11.9515,13.8569,1.02056
1.5,0.502462,1.07216,12.9097,11.9468,13.8511,1.02082
1.51,0.502808,1.07301,12.9047,11.9421,13.8453,1.02105
1.52,0.503115,1.07384,12.8997,11.9374,13.8395,1.02126
1.53,0.503431,1.07471,12.8947,11.9327,13.8337,1.02151
1.54,0.503835,1.0756,12.8896,11.928,13.8279,1.02175
1.55,0.50421,1.07646,12.8846,11.9234,13.8221,1.02196
1.56,0.50457,1.07736,12.8795,11.9187,13.8163,1.0222
1.57,0.50496,1.07827,12.8745,11.914,13.8104,1.02245
1.58,0.505296,1.07918,12.8694,11.9093,13.8046,1.02267
1.59,0.505629,1.08012,12.8644,11.9046,13.7987,1.02289
1.6,0.505929,1.08107,12.8593,11.8999,13.7928,1.02314
1.61,0.506258,1.08199,12.8543,11.8953,13.7869,1.02337
1.62,0.506541,1.08292,12.8492,11.8906,13.781,1.02358
1.63,0.506802,1.08388,12.8442,11.8859,13.7751,1.02384
1.64,0.507015,1.0848,12.8391,11.8812,13.7692,1.02407
1.65,0.507214,1.08569,12.834,11.8764,13.7633,1.02428
1.66,0.507496,1.0866,12.8289,11.8717,13.7574,1.02453
1.67,0.507748,1.08754,12.8239,11.8669,13.7515,1.02477
1.68,0.508056,1.08846,12.8188,11.8622,13.7455,1.02498
1.69,0.508336,1.08941,12.8137,11.8575,13.7396,1.02521
1.7,0.508656,1.09037,12.8086,11.8527,13.7337,1.02546
1.71,0.508897,1.09128,12.8035,11.848,13.7277,1.02568
1.72,0.509165,1.0922,12.7985,11.8432,13.7218,1.0259
1.73,0.509437,1.09315,12.7934,11.8385,13.7159,1.02615
1.74,0.509762,1.09406,12.7883,11.8337,13.71,1.02637
1.75,0.510063,1.09497,12.7832,11.829,13.7041,1.02658
1.76,0.510268,1.09593,12.7781,11.8242,13.6981,1.02683
1.77,0.510446,1.09685,12.773,11.8194,13.6922,1.02706
1.78,0.510644,1.09774,12.7679,11.8146,13.6862,1.02727
1.79,0.51092,1.09867,12.7628,11.8098,13.6802,1.02751
1.8,0.511185,1.09962,12.7577,11.805,13.6742,1.02775
1.81,0.51143,1.10055,12.7525,11.8002,13.6683,1.02796
1.82,0.511738,1.10152,12.7474,11.7954,13.6623,1.02819
1.83,0.511816,1.10249,12.7423,11.7906,13.6563,1.02844
1.84,0.512058,1.10345,12.7372,11.7858,13.6503,1.02865
1.85,0.512331,1.10441,12.7321,11.7811,13.6443,1.02887
1.86,0.512546,1.10543,12.727,11.7763,13.6382,1.02912
1.87,0.512738,1.10641,12.7218,11.7715,13.6322,1.02934
1.88,0.512916,1.1074,12.7167,11.7668,13.6262,1.02954
1.89,0.513008,1.10845,12.7116,11.7621,13.6201,1.02979
1.9,0.513115,1.10946,12.7064,11.7573,13.6141,1.03002
1.91,0.513029,1.11042,12.7013,11.7525,13.608,1.03022
1.92,0.513259,1.11139,12.6962,11.7476,13.602,1.03047
1.93,0.513474,1.11236,12.6911,11.7428,13.596,1.0307
1.94,0.513715,1.11333,12.6859,11.738,13.5899,1.03091
1.95,0.5139,1.11434,12.6808,11.7332,13.5839,1.03114
1.96,0.514111,1.11534,12.6756,11.7284,13.5779,1.03137
1.97,0.514336,1.11631,12.6705,11.7236,13.5718,1.03158
1.98,0.514483,1.11731,12.6654,11.7188,13.5658,1.03179
1.99,0.514727,1.11832,12.6602,11.714,13.5597,1.03203
2,0.514955,1.11931,12.6551,11.7092,13.5536,1.03224
2.01,0.515144,1.12031,12.6499,11.7044,13.5475,1.03244
2.02,0.515258,1.12135,12.6448,11.6996,13.5415,1.03268
2.03,0.515398,1.12232,12.6396,11.6947,13.5354,1.03289
2.04,0.515562,1.12328,12.6345,11.6899,13.5293,1.03309
2.05,0.515772,1.12427,12.6293,11.685,13.5232,1.03333
2.06,0.51594,1.12525,12.6242,11.6801,13.5171,1.03355
2.07,0.516087,1.12622,12.619,11.6753,13.511,1.03374
2.08,0.516297,1.12727,12.6138,11.6704,13.5049,1.03399
2.09,0.516518,1.12828,12.6087,11.6656,13.4988,1.03421
2.1,0.516645,1.12926,12.6035,11.6607,13.4927,1.0344
2.11,0.51679,1.13032,12.5984,11.6559,13.4866,1.03464
2.12,0.516935,1.13135,12.5932,11.6511,13.4805,1.03486
2.13,0.51697,1.13233,12.588,11.6462,13.4744,1.03505
2.14,0.517043,1.13337,12.5828,11.6414,13.4683,1.03529
2.15,0.517112,1.13439,12.5777,11.6366,13.4622,1.03551
2.16,0.517244,1.13536,12.5725,11.6317,13.4562,1.03571
2.17,0.517353,1.13635,12.5673,11.6268,13.4501,1.03593
2.18,0.517496,1.13731,12.5622,11.6219,13.444,1.03616
2.19,0.517664,1.13827,12.557,11.6169,13.4379,1.03636
2.2,0.517843,1.13928,12.5518,11.6121,13.4317,1.03657
2.21,0.517983,1.14032,12.5466,11.6072,13.4256,1.0368
2.22,0.518153,1.14133,12.5415,11.6023,13.4195,1.037
2.23,0.518254,1.14233,12.5363,11.5974,13.4134,1.0372
2.24,0.518386,1.1434,12.5311,11.5926,13.4072,1.03744
2.25,0.518499,1.14441,12.5259,11.5877,13.4011,1.03765
2.26,0.518631,1.14541,12.5207,11.5828,13.3949,1.03784
2.27,0.518687,1.14647,12.5155,11.5779,13.3888,1.03807
2.28,0.518791,1.1475,12.5104,11.573,13.3826,1.03829
2.29,0.518889,1.14847,12.5052,11.568,13.3765,1.03847
2.3,0.518994,1.14951,12.5,11.5631,13.3703,1.03871
2.31,0.519053,1.15051,12.4948,11.5581,13.3642,1.03892
2.32,0.51916,1.15151,12.4896,11.5532,13.358,1.03911
2.33,0.519344,1.15254,12.4844,11.5483,13.3518,1.03933
2.34,0.51947,1.15358,12.4792,11.5434,13.3457,1.03955
2.35,0.519526,1.15457,12.474,11.5385,13.3395,1.03974
2.36,0.51965,1.1556,12.4688,11.5336,13.3334,1.03995
2.37,0.51977,1.15666,12.4636,11.5287,13.3273,1.04017
2.38,0.519826,1.15768,12.4584,11.5238,13.3211,1.04037
2.39,0.519819,1.15872,12.4533,11.5189,13.315,1.04056
2.4,0.519831,1.15982,12.4481,11.5141,13.3088,1.04079
2.41,0.51983,1.16086,12.4429,11.5092,13.3026,1.04098
2.42,0.519851,1.16189,12.4377,11.5043,13.2965,1.04117
2.43,0.519946,1.16293,12.4325,11.4993,13.2903,1.0414
2.44,0.519957,1.16394,12.4273,11.4943,13.2841,1.0416
2.45,0.520073,1.16495,12.4221,11.4894,13.2779,1.04177
2.46,0.520193,1.16605,12.4169,11.4845,13.2718,1.042
2.47,0.520294,1.16712,12.4117,11.4796,13.2656,1.0422
2.48,0.520357,1.16814,12.4065,11.4747,13.2594,1.04238
2.49,0.520434,1.16922,12.4013,11.4698,13.2532,1.04259
2.5,0.520515,1.17031,12.3961,11.4649,13.247,1.0428
2.51,0.520557,1.17134,12.3909,11.46,13.2408,1.04298
2.52,0.520588,1.17243,12.3857,11.4551,13.2346,1.04318
2.53,0.520604,1.1735,12.3804,11.4502,13.2284,1.0434
2.54,0.520677,1.1745,12.3752,11.4452,13.2223,1.04358
2.55,0.520742,1.1755,12.37,11.4402,13.2161,1.04377
2.56,0.520845,1.17652,12.3648,11.4353,13.21,1.04398
2.57,0.520924,1.17752,12.3596,11.4303,13.2038,1.04417
2.58,0.521108,1.17853,12.3544,11.4253,13.1976,1.04435
2.59,0.52123,1.17959,12.3492,11.4204,13.1915,1.04457
2.6,0.521371,1.18062,12.344,11.4154,13.1853,1.04476
2.61,0.521407,1.18163,12.3388,11.4105,13.1791,1.04492
2.62,0.521498,1.18274,12.3336,11.4056,13.1729,1.04514
2.63,0.521506,1.18379,12.3284,11.4006,13.1667,1.04534
2.64,0.521559,1.18482,12.3231,11.3957,13.1605,1.0455
2.65,0.52154,1.18592,12.3179,11.3908,13.1543,1.04571
2.66,0.521275,1.187,12.3127,11.3859,13.1481,1.04591
2.67,0.521318,1.188,12.3075,11.3809,13.142,1.04607
2.68,0.521453,1.18904,12.3023,11.3759,13.1358,1.04627
2.69,0.52151,1.19005,12.2971,11.3709,13.1296,1.04647
2.7,0.521607,1.19106,12.2919,11.3659,13.1234,1.04664
2.71,0.521666,1.19212,12.2867,11.3609,13.1172,1.04683
2.72,0.521755,1.19321,12.2814,11.356,13.1109,1.04703
2.73,0.521825,1.19423,12.2762,11.351,13.1047,1.0472
2.74,0.521896,1.19526,12.271,11.346,13.0986,1.04737
2.75,0.521983,1.19632,12.2658,11.3411,13.0924,1.04757
2.76,0.522052,1.19734,12.2606,11.3361,13.0862,1.04774
2.77,0.52211,1.19835,12.2553,11.3311,13.08,1.04791
2.78,0.522131,1.19942,12.2501,11.3261,13.0738,1.04811
2.79,0.522228,1.20042,12.2449,11.3211,13.0676,1.04828
2.8,0.522219,1.20141,12.2397,11.3161,13.0614,1.04845
2.81,0.522024,1.20244,12.2345,11.311,13.0553,1.04865
2.82,0.522196,1.20343,12.2293,11.306,13.0491,1.04883
2.83,0.522365,1.20444,12.224,11.301,13.0429,1.04899
2.84,0.522472,1.20552,12.2188,11.296,13.0367,1.0492
2.85,0.522527,1.20655,12.2136,11.291,13.0305,1.04937
2.86,0.522619,1.20756,12.2084,11.286,13.0243,1.04953
2.87,0.522728,1.20865,12.2031,11.2811,13.0181,1.04973
2.88,0.522741,1.20971,12.1979,11.2761,13.0119,1.04991
2.89,0.522772,1.21074,12.1927,11.2711,13.0057,1.05005
2.9,0.522784,1.21186,12.1875,11.2662,12.9995,1.05026
2.91,0.522764,1.21295,12.1822,11.2612,12.9933,1.05043
2.92,0.52275,1.214,12.177,11.2563,12.987,1.05058
2.93,0.522796,1.21506,12.1718,11.2512,12.9808,1.05078
2.94,0.522851,1.21607,12.1666,11.2462,12.9746,1.05096
2.95,0.522941,1.21705,12.1613,11.2412,12.9685,1.05111
2.96,0.523017,1.21812,12.1561,11.2362,12.9623,1.0513
2.97,0.52308,1.21916,12.1509,11.2312,12.9561,1.05148
2.98,0.523124,1.22015,12.1456,11.2262,12.95,1.05162
2.99,0.523164,1.22119,12.1404,11.2212,12.9438,1.05181
3,0.523238,1.22224,12.1352,11.2163,12.9377,1.05199
3.01,0.52327,1.22324,12.13,11.2112,12.9315,1.05214
3.02,0.523305,1.22428,12.1247,11.2062,12.9253,1.05232
3.03,0.5234,1.22534,12.1195,11.2013,12.9191,1.0525
3.04,0.523473,1.22633,12.1143,11.1962,12.913,1.05265
3.05,0.523599,1.22733,12.109,11.1912,12.9068,1.05282
3.06,0.52368,1.22835,12.1038,11.1861,12.9006,1.053
3.07,0.52381,1.22932,12.0986,11.181,12.8944,1.05316
3.08,0.523731,1.23033,12.0933,11.176,12.8882,1.05331
3.09,0.523819,1.23139,12.0881,11.171,12.8821,1.0535
3.1,0.523841,1.23241,12.0828,11.166,12.8759,1.05366
3.11,0.523867,1.23342,12.0776,11.1609,12.8697,1.0538
3.12,0.523901,1.23451,12.0724,11.1559,12.8635,1.05399
3.13,0.523919,1.23555,12.0671,11.1509,12.8573,1.05415
3.14,0.523956,1.23656,12.0619,11.1459,12.8511,1.05429
3.15,0.523982,1.23765,12.0567,11.1409,12.8449,1.05448
3.16,0.524048,1.2387,12.0514,11.1359,12.8387,1.05464
3.17,0.524126,1.23967,12.0462,11.1309,12.8326,1.05477
3.18,0.524218,1.24069,12.0409,11.1258,12.8264,1.05496
3.19,0.524294,1.24166,12.0357,11.1207,12.8202,1.05512
3.2,0.524432,1.24263,12.0305,11.1156,12.814,1.05525
3.21,0.524532,1.24367,12.0252,11.1106,12.8079,1.05543
3.22,0.524561,1.24472,12.02,11.1056,12.8017,1.0556
3.23,0.524581,1.2457,12.0147,11.1005,12.7955,1.05573
3.24,0.524634,1.24674,12.0095,11.0955,12.7893,1.0559
3.25,0.524681,1.24778,12.0042,11.0904,12.7831,1.05607
3.26,0.524723,1.24877,11.999,11.0854,12.777,1.05621
3.27,0.524726,1.24979,11.9937,11.0803,12.7708,1.05636
3.28,0.524743,1.25083,11.9885,11.0753,12.7646,1.05654
3.29,0.524798,1.2518,11.9833,11.0702,12.7584,1.05668
3.3,0.52493,1.25276,11.978,11.0651,12.7523,1.05682
3.31,0.52496,1.25375,11.9728,11.06,12.7461,1.05699
3.32,0.525043,1.25471,11.9675,11.0549,12.7399,1.05714
3.33,0.525097,1.25567,11.9623,11.0498,12.7338,1.05727
3.34,0.525077,1.2567,11.957,11.0447,12.7276,1.05744
3.35,0.525128,1.25765,11.9518,11.0397,12.7215,1.05759
3.36,0.525141,1.25858,11.9465,11.0346,12.7154,1.05771
3.37,0.525135,1.25958,11.9413,11.0296,12.7093,1.05789
3.38,0.525167,1.26052,11.936,11.0245,12.7033,1.05803
3.39,0.525146,1.26142,11.9308,11.0195,12.6972,1.05815
3.4,0.525179,1.26241,11.9255,11.0145,12.6912,1.05832
3.41,0.525174,1.26334,11.9203,11.0095,12.6851,1.05847
3.42,0.52522,1.26421,11.915,11.0044,12.6791,1.05858
3.43,0.525288,1.26509,11.9098,10.9993,12.6731,1.05875
3.44,0.525143,1.26595,11.9045,10.9942,12.6671,1.0589
3.45,0.525249,1.2668,11.8993,10.9891,12.6611,1.05902
3.46,0.525309,1.26772,11.894,10.9841,12.6551,1.05918
3.47,0.525317,1.26861,11.8888,10.9791,12.6491,1.05933
3.48,0.525361,1.26947,11.8835,10.974,12.6431,1.05946
3.49,0.52541,1.27035,11.8783,10.969,12.6372,1.05961
3.5,0.525425,1.27123,11.873,10.9639,12.6312,1.05976
3.51,0.525433,1.27206,11.8677,10.9588,12.6253,1.05989
3.52,0.52546,1.27291,11.8625,10.9538,12.6193,1.06003
3.53,0.52548,1.27378,11.8572,10.9487,12.6134,1.06019
3.54,0.525532,1.27457,11.852,10.9436,12.6074,1.06031
3.55,0.525594,1.27534,11.8467,10.9385,12.6015,1.06044
3.56,0.525662,1.27615,11.8415,10.9334,12.5956,1.0606
3.57,0.525758,1.27693,11.8362,10.9283,12.5897,1.06073
3.58,0.525775,1.2777,11.831,10.9232,12.5838,1.06085
3.59,0.525832,1.27852,11.8257,10.9182,12.5779,1.06101
3.6,0.525897,1.27929,11.8205,10.9131,12.572,1.06114
3.61,0.525978,1.28005,11.8152,10.908,12.5662,1.06126
3.62,0.526019,1.28087,11.8099,10.903,12.5603,1.06142
3.63,0.526055,1.28164,11.8047,10.8979,12.5544,1.06155
3.64,0.526094,1.2824,11.7994,10.8928,12.5486,1.06166
3.65,0.52608,1.28323,11.7942,10.8878,12.5427,1.06182
3.66,0.526128,1.28398,11.7889,10.8827,12.5369,1.06196
3.67,0.526246,1.28466,11.7836,10.8776,12.531,1.06206
3.68,0.52627,1.28539,11.7784,10.8724,12.5252,1.06222
3.69,0.526357,1.28611,11.7731,10.8673,12.5193,1.06236
3.7,0.526439,1.28681,11.7679,10.8622,12.5135,1.06246
3.71,0.526505,1.28758,11.7626,10.8571,12.5077,1.06263
3.72,0.526545,1.2883,11.7573,10.852,12.5019,1.06276
3.73,0.526327,1.28899,11.7521,10.8469,12.4961,1.06286
3.74,0.526382,1.28975,11.7468,10.8418,12.4902,1.06302
