time,velocity,ratio,centerX,Xmax,Xmin,Ymax
0,0,1,1.25,0.25,2.25,1
0.01,0.0160308,1.00003,1.24992,0.249964,2.24991,1.00001
0.02,0.030936,1.00013,1.24969,0.249861,2.24964,1.00002
0.03,0.0448581,1.0003,1.24932,0.2497,2.24921,1.00005
0.04,0.0578667,1.00052,1.24881,0.249486,2.24863,1.00009
0.05,0.0700754,1.0008,1.24817,0.249222,2.24791,1.00014
0.06,0.0815262,1.00114,1.24741,0.248911,2.24705,1.00021
0.07,0.0923283,1.00153,1.24655,0.248555,2.24607,1.00028
0.08,0.102498,1.00196,1.24558,0.248154,2.24497,1.00036
0.09,0.112091,1.00244,1.24451,0.24771,2.24376,1.00046
0.1,0.121122,1.00297,1.24334,0.247234,2.24244,1.00056
0.11,0.129657,1.00355,1.24209,0.246719,2.24102,1.00069
0.12,0.137705,1.00418,1.24076,0.246167,2.23952,1.00084
0.13,0.145299,1.00485,1.23935,0.245579,2.23792,1.001
0.14,0.152459,1.00555,1.23786,0.244956,2.23624,1.00116
0.15,0.159216,1.00628,1.2363,0.2443,2.23448,1.00134
0.16,0.16558,1.00706,1.23468,0.243611,2.23262,1.00152
0.17,0.171372,1.00788,1.233,0.242893,2.23067,1.00172
0.18,0.177059,1.00873,1.23126,0.242144,2.22863,1.00192
0.19,0.182447,1.00964,1.22946,0.241362,2.2265,1.00214
0.2,0.187506,1.0106,1.22762,0.240558,2.22431,1.00239
0.21,0.192298,1.0116,1.22572,0.23973,2.22204,1.00265
0.22,0.196792,1.01262,1.22378,0.238876,2.21971,1.00291
0.23,0.200588,1.01367,1.22179,0.237998,2.21731,1.00318
0.24,0.204519,1.01475,1.21977,0.237097,2.21484,1.00346
0.25,0.208028,1.01587,1.21771,0.236175,2.2123,1.00375
0.26,0.211494,1.01705,1.21561,0.235237,2.20971,1.00407
0.27,0.214644,1.01826,1.21348,0.234284,2.20707,1.0044
0.28,0.217554,1.01948,1.21132,0.233311,2.2044,1.00474
0.29,0.220348,1.02071,1.20913,0.232312,2.20169,1.00508
0.3,0.223057,1.02198,1.20692,0.231301,2.19892,1.00543
0.31,0.225495,1.02327,1.20468,0.230273,2.19609,1.00578
0.32,0.227565,1.02461,1.20242,0.229238,2.19323,1.00616
0.33,0.229673,1.02596,1.20013,0.228188,2.19035,1.00655
0.34,0.231632,1.02733,1.19783,0.227133,2.18745,1.00695
0.35,0.233113,1.02873,1.1955,0.226069,2.18449,1.00734
0.36,0.234839,1.03016,1.19317,0.224999,2.18148,1.00774
0.37,0.236253,1.03158,1.19081,0.223922,2.17846,1.00813
0.38,0.237764,1.03305,1.18844,0.222838,2.17544,1.00857
0.39,0.239139,1.03451,1.18606,0.221743,2.17243,1.009
0.4,0.240186,1.03597,1.18366,0.22063,2.1694,1.00943
0.41,0.24127,1.03745,1.18126,0.219502,2.16632,1.00986
0.42,0.242303,1.03893,1.17884,0.21836,2.1632,1.01028
0.43,0.243025,1.04043,1.17642,0.217197,2.16007,1.01072
0.44,0.243826,1.04196,1.17398,0.216019,2.15694,1.01118
0.45,0.24435,1.04348,1.17155,0.214829,2.15379,1.01163
0.46,0.244959,1.04502,1.1691,0.213632,2.1506,1.01208
0.47,0.24509,1.04656,1.16665,0.212429,2.1474,1.01253
0.48,0.245517,1.0481,1.1642,0.211223,2.14419,1.01297
0.49,0.245875,1.04966,1.16174,0.210013,2.14099,1.01343
0.5,0.246033,1.05123,1.15929,0.208802,2.13778,1.01391
0.51,0.246272,1.05282,1.15683,0.20759,2.13455,1.01437
0.52,0.246369,1.0544,1.15436,0.206376,2.13131,1.01483
0.53,0.246351,1.05598,1.1519,0.205163,2.12809,1.01528
0.54,0.24629,1.05753,1.14944,0.203949,2.12488,1.01572
0.55,0.246209,1.05915,1.14698,0.202736,2.12162,1.01619
0.56,0.245971,1.06076,1.14452,0.201509,2.11836,1.01666
0.57,0.245707,1.06233,1.14206,0.200267,2.11514,1.01712
0.58,0.245415,1.06387,1.13961,0.199016,2.11197,1.01757
0.59,0.244829,1.06538,1.13716,0.19776,2.10883,1.01801
0.6,0.244363,1.06689,1.13471,0.196502,2.10568,1.01845
0.61,0.243917,1.06846,1.13227,0.195242,2.1025,1.01892
0.62,0.243427,1.07003,1.12984,0.193984,2.09931,1.01937
0.63,0.242978,1.07159,1.12741,0.192727,2.09612,1.01982
0.64,0.242437,1.07313,1.12498,0.191472,2.09295,1.02026
0.65,0.241847,1.07467,1.12256,0.190219,2.08976,1.02069
0.66,0.241202,1.07622,1.12015,0.188969,2.08657,1.02112
0.67,0.240526,1.0778,1.11774,0.187723,2.08338,1.02157
0.68,0.239492,1.07939,1.11534,0.186514,2.08021,1.02201
0.69,0.238737,1.08094,1.11295,0.18529,2.07707,1.02245
0.7,0.237955,1.08249,1.11057,0.184072,2.07393,1.02287
0.71,0.237056,1.08403,1.1082,0.182857,2.07079,1.02329
0.72,0.23617,1.08555,1.10583,0.181636,2.06767,1.02369
0.73,0.235167,1.08709,1.10348,0.180405,2.06457,1.02413
0.74,0.234122,1.08861,1.10113,0.179186,2.06151,1.02455
0.75,0.232925,1.09014,1.0988,0.177983,2.05842,1.02497
0.76,0.231883,1.09166,1.09647,0.176785,2.05535,1.02538
0.77,0.230847,1.09315,1.09416,0.175594,2.05232,1.02577
0.78,0.229813,1.09462,1.09186,0.174408,2.04932,1.02616
0.79,0.228731,1.09609,1.08957,0.173223,2.04637,1.02657
0.8,0.227608,1.09756,1.08729,0.172046,2.04342,1.02698
0.81,0.226473,1.09903,1.08502,0.170877,2.04048,1.02737
0.82,0.225312,1.10048,1.08276,0.169703,2.03755,1.02776
0.83,0.223932,1.10191,1.08051,0.16853,2.03464,1.02814
0.84,0.222743,1.10331,1.07828,0.167362,2.03176,1.02851
0.85,0.221605,1.10471,1.07606,0.1662,2.0289,1.02888
0.86,0.220387,1.10614,1.07385,0.165043,2.02605,1.02926
0.87,0.219104,1.10755,1.07166,0.163892,2.02321,1.02964
0.88,0.217785,1.10894,1.06947,0.162747,2.02039,1.03001
0.89,0.216339,1.11031,1.0673,0.161612,2.01761,1.03037
0.9,0.21501,1.11166,1.06515,0.160488,2.01486,1.03072
0.91,0.213697,1.113,1.06301,0.159375,2.01212,1.03106
0.92,0.212382,1.11436,1.06088,0.158273,2.0094,1.03141
0.93,0.211066,1.11572,1.05876,0.157183,2.0067,1.03177
0.94,0.209743,1.11705,1.05666,0.156103,2.00403,1.03212
0.95,0.208329,1.11836,1.05457,0.155024,2.00139,1.03245
0.96,0.206824,1.11965,1.05249,0.153941,1.99877,1.03278
0.97,0.205453,1.12095,1.05043,0.152863,1.99613,1.0331
0.98,0.204062,1.12221,1.04839,0.15179,1.99353,1.03341
0.99,0.202594,1.12347,1.04635,0.150724,1.99099,1.03374
1,0.201189,1.12472,1.04434,0.149671,1.98848,1.03407
1.01,0.199785,1.12594,1.04233,0.148628,1.98601,1.03439
1.02,0.1983,1.12714,1.04034,0.147596,1.98358,1.0347
1.03,0.196889,1.12833,1.03837,0.146577,1.98115,1.035
1.04,0.195163,1.12953,1.03641,0.145569,1.97873,1.0353
1.05,0.193777,1.13071,1.03446,0.144575,1.97631,1.03558
1.06,0.192374,1.13191,1.03253,0.143594,1.97392,1.03588
1.07,0.190909,1.13312,1.03062,0.142625,1.97154,1.03619
1.08,0.189428,1.13431,1.02872,0.141667,1.96918,1.03648
1.09,0.188034,1.13549,1.02683,0.140722,1.96684,1.03677
1.1,0.186579,1.13666,1.02496,0.139779,1.96451,1.03705
1.11,0.18467,1.1378,1.02311,0.138827,1.9622,1.03732
1.12,0.183325,1.13892,1.02127,0.137871,1.95991,1.03758
1.13,0.181915,1.14002,1.01944,0.136914,1.95765,1.03784
1.14,0.180503,1.14114,1.01763,0.13596,1.95541,1.03812
1.15,0.179087,1.14223,1.01583,0.135009,1.95319,1.03839
1.16,0.17774,1.14331,1.01405,0.134064,1.95099,1.03866
1.17,0.176341,1.14438,1.01228,0.133125,1.94881,1.03891
1.18,0.17492,1.14543,1.01052,0.132196,1.94665,1.03916
1.19,0.173492,1.14646,1.00878,0.131274,1.94451,1.0394
1.2,0.172075,1.14748,1.00706,0.130362,1.9424,1.03964
1.21,0.170664,1.14848,1.00534,0.129457,1.94031,1.03986
1.22,0.169251,1.14949,1.00364,0.128559,1.93824,1.04011
1.23,0.167849,1.1505,1.00196,0.127669,1.93619,1.04035
1.24,0.166446,1.1515,1.00029,0.126784,1.93415,1.04059
1.25,0.16504,1.15248,0.998632,0.125905,1.93213,1.04082
1.26,0.163627,1.15344,0.99699,0.125034,1.93014,1.04104
1.27,0.162223,1.15444,0.995361,0.124255,1.92817,1.04126
1.28,0.160809,1.15542,0.993747,0.123482,1.92623,1.04147
1.29,0.159407,1.15639,0.992146,0.122712,1.92431,1.04167
1.3,0.158001,1.15733,0.99056,0.121928,1.92241,1.04188
1.31,0.156594,1.15827,0.988988,0.121133,1.92054,1.0421
1.32,0.155193,1.15919,0.98743,0.120318,1.91867,1.04231
1.33,0.153788,1.1601,0.985886,0.119519,1.91683,1.04252
1.34,0.152399,1.161,0.984356,0.118742,1.91499,1.04273
1.35,0.150993,1.1619,0.982839,0.117971,1.91318,1.04292
1.36,0.149706,1.16277,0.981336,0.117204,1.91138,1.04311
1.37,0.148329,1.16364,0.979847,0.116444,1.90961,1.0433
1.38,0.146955,1.16449,0.978371,0.115686,1.90785,1.04348
1.39,0.145572,1.16532,0.976909,0.114936,1.90612,1.04365
1.4,0.144286,1.16619,0.97546,0.114205,1.9044,1.04385
1.41,0.142939,1.16704,0.974025,0.113485,1.90269,1.04404
1.42,0.141591,1.16789,0.972603,0.112774,1.901,1.04422
1.43,0.140258,1.16872,0.971194,0.112071,1.89933,1.0444
1.44,0.138926,1.16954,0.969798,0.111376,1.89768,1.04458
1.45,0.137696,1.17035,0.968416,0.110688,1.89604,1.04475
1.46,0.136381,1.17115,0.967046,0.110007,1.89443,1.04491
1.47,0.135071,1.17193,0.96569,0.109333,1.89283,1.04507
1.48,0.133772,1.1727,0.964346,0.108659,1.89125,1.04522
1.49,0.132477,1.17345,0.963015,0.107988,1.88969,1.04537
1.5,0.131278,1.17422,0.961697,0.107318,1.88815,1.04554
1.51,0.130011,1.17497,0.960392,0.106654,1.88662,1.04571
1.52,0.12875,1.17572,0.959099,0.105994,1.88511,1.04587
1.53,0.127491,1.17645,0.957818,0.105339,1.88361,1.04602
1.54,0.126264,1.17717,0.95655,0.104691,1.88213,1.04617
1.55,0.125013,1.17788,0.955293,0.104048,1.88067,1.04632
1.56,0.123882,1.17857,0.954049,0.103411,1.87922,1.04646
1.57,0.122662,1.17926,0.952817,0.102781,1.87779,1.0466
1.58,0.121457,1.17993,0.951597,0.102157,1.87638,1.04673
1.59,0.120255,1.18059,0.950389,0.101538,1.87498,1.04686
1.6,0.119121,1.18125,0.949193,0.100926,1.87359,1.04698
1.61,0.117923,1.18192,0.948008,0.100324,1.87221,1.04711
1.62,0.116749,1.18258,0.946836,0.0997293,1.87086,1.04725
1.63,0.115572,1.18324,0.945675,0.0991422,1.86952,1.04738
1.64,0.114433,1.18388,0.944525,0.0985626,1.86819,1.04751
1.65,0.113354,1.18451,0.943386,0.0979904,1.86689,1.04764
1.66,0.112231,1.18513,0.942259,0.0974251,1.8656,1.04776
1.67,0.111106,1.18574,0.941143,0.0968671,1.86432,1.04787
1.68,0.109997,1.18635,0.940038,0.0963161,1.86306,1.04799
1.69,0.10895,1.18694,0.938944,0.0957721,1.86182,1.0481
1.7,0.107843,1.18752,0.93786,0.0952351,1.86059,1.0482
1.71,0.10675,1.1881,0.936788,0.0947047,1.85937,1.0483
1.72,0.105667,1.18867,0.935726,0.094181,1.85816,1.0484
1.73,0.104663,1.18924,0.934675,0.0936638,1.85696,1.0485
1.74,0.103589,1.18982,0.933635,0.0931465,1.85578,1.04861
1.75,0.10252,1.19039,0.932605,0.092628,1.8546,1.04872
1.76,0.101459,1.19095,0.931586,0.0921113,1.85344,1.04882
1.77,0.100488,1.19149,0.930576,0.0915976,1.85229,1.04893
1.78,0.0994472,1.19203,0.929577,0.0910874,1.85115,1.04902
1.79,0.0984365,1.19256,0.928589,0.0905816,1.85002,1.04912
1.8,0.0974138,1.19308,0.92761,0.0900804,1.84891,1.04921
1.81,0.0965103,1.19359,0.92664,0.0895838,1.84781,1.0493
1.82,0.0955236,1.1941,0.925681,0.0890919,1.84672,1.04939
1.83,0.0945599,1.19459,0.924731,0.0886044,1.84564,1.04947
1.84,0.0936563,1.19508,0.92379,0.0881214,1.84458,1.04955
1.85,0.0927085,1.19556,0.922859,0.0876431,1.84352,1.04963
1.86,0.0917629,1.19603,0.921937,0.0871699,1.84248,1.0497
1.87,0.0909057,1.1965,0.921024,0.0867016,1.84145,1.04977
1.88,0.0899824,1.19697,0.92012,0.0862379,1.84043,1.04986
1.89,0.0890699,1.19744,0.919225,0.0857788,1.83942,1.04994
1.9,0.0882395,1.19791,0.918339,0.0853243,1.83842,1.05003
1.91,0.087329,1.19836,0.917462,0.0848749,1.83744,1.0501
1.92,0.0864217,1.19881,0.916593,0.0844304,1.83646,1.05018
1.93,0.0856378,1.19926,0.915734,0.0839902,1.8355,1.05026
1.94,0.0847,1.19969,0.914882,0.0835546,1.83455,1.05033
1.95,0.0838543,1.20013,0.91404,0.0831239,1.83361,1.0504
1.96,0.0829665,1.20055,0.913206,0.0826983,1.83267,1.05047
1.97,0.0821669,1.20097,0.912381,0.0822776,1.83175,1.05054
1.98,0.0813022,1.20138,0.911565,0.0818615,1.83085,1.0506
1.99,0.0805198,1.20179,0.910756,0.0814503,1.82995,1.05066
2,0.0796639,1.20219,0.909956,0.081044,1.82906,1.05072
2.01,0.078836,1.20259,0.909164,0.0806423,1.82818,1.05078
2.02,0.0780831,1.20297,0.90838,0.080245,1.82731,1.05084
2.03,0.0772725,1.20336,0.907603,0.0798523,1.82645,1.05089
2.04,0.0765548,1.20373,0.906835,0.0794641,1.82561,1.05094
2.05,0.0757762,1.20412,0.906073,0.0790802,1.82477,1.05101
2.06,0.0750658,1.20451,0.90532,0.0787007,1.82394,1.05107
2.07,0.0742802,1.20488,0.904573,0.0783255,1.82312,1.05113
2.08,0.0736006,1.20525,0.903834,0.0779539,1.8223,1.05119
2.09,0.0728375,1.20562,0.903103,0.0775815,1.8215,1.05125
2.1,0.0722111,1.20597,0.902378,0.0772081,1.82071,1.0513
2.11,0.0715769,1.20631,0.90166,0.0768347,1.81992,1.05135
2.12,0.0709478,1.20665,0.900948,0.0764619,1.81915,1.0514
2.13,0.0703308,1.20697,0.900242,0.0760897,1.81838,1.05145
2.14,0.0697183,1.20729,0.899542,0.0757188,1.81762,1.05149
2.15,0.0691065,1.20761,0.898848,0.0753497,1.81687,1.05154
2.16,0.0684955,1.20791,0.898161,0.0749824,1.81613,1.05158
2.17,0.067887,1.20821,0.897479,0.0746167,1.81539,1.05161
2.18,0.0672874,1.20851,0.896804,0.0742529,1.81467,1.05165
2.19,0.0666846,1.20879,0.896134,0.0738911,1.81395,1.05168
2.2,0.0660924,1.20907,0.895471,0.0735305,1.81324,1.05171
2.21,0.0655055,1.20935,0.894813,0.0731715,1.81253,1.05174
2.22,0.0649226,1.20961,0.894162,0.0728141,1.81183,1.05177
2.23,0.0643427,1.20988,0.893516,0.0724587,1.81114,1.0518
2.24,0.0637716,1.21014,0.892876,0.0721054,1.81046,1.05182
2.25,0.0632056,1.2104,0.892241,0.0717536,1.80978,1.05185
2.26,0.0626478,1.21066,0.891612,0.0714036,1.80912,1.05189
2.27,0.062092,1.21092,0.890989,0.0710551,1.80845,1.05192
2.28,0.061548,1.21117,0.890371,0.0707084,1.8078,1.05196
2.29,0.0610074,1.21142,0.889759,0.0703639,1.80715,1.05199
2.3,0.0604805,1.21166,0.889152,0.0700211,1.80651,1.05202
2.31,0.0599379,1.2119,0.88855,0.0696803,1.80588,1.05205
2.32,0.059398,1.21214,0.887954,0.0693415,1.80525,1.05208
2.33,0.0588658,1.21237,0.887363,0.0690043,1.80463,1.05211
2.34,0.0583505,1.2126,0.886777,0.0686692,1.80401,1.05213
2.35,0.0578444,1.21282,0.886196,0.0683363,1.8034,1.05216
2.36,0.0573496,1.21304,0.885621,0.0680055,1.8028,1.05219
2.37,0.0568663,1.21325,0.88505,0.0676764,1.8022,1.05221
2.38,0.0563962,1.21347,0.884484,0.0673493,1.80161,1.05223
2.39,0.0559248,1.21367,0.883923,0.0670243,1.80103,1.05226
2.4,0.0554564,1.21388,0.883366,0.0667015,1.80045,1.05228
2.41,0.0549867,1.21408,0.882815,0.0663806,1.79987,1.0523
2.42,0.0545233,1.21428,0.882267,0.0660621,1.79931,1.05232
2.43,0.0540676,1.21447,0.881725,0.0657461,1.79874,1.05234
2.44,0.0536152,1.21466,0.881187,0.0654322,1.79819,1.05236
2.45,0.0531664,1.21485,0.880653,0.0651203,1.79763,1.05237
2.46,0.0527245,1.21504,0.880124,0.0648109,1.79709,1.05239
2.47,0.05229,1.21522,0.8796,0.0645039,1.79654,1.05241
2.48,0.051861,1.2154,0.879079,0.0641989,1.79601,1.05242
2.49,0.0514347,1.21558,0.878563,0.0638959,1.79547,1.05244
2.5,0.0510172,1.21577,0.878051,0.0635949,1.79494,1.05246
2.51,0.0506017,1.21596,0.877544,0.063296,1.79442,1.05248
2.52,0.0501911,1.21614,0.87704,0.0629991,1.7939,1.05251
2.53,0.0497869,1.21632,0.876541,0.0627044,1.79338,1.05253
2.54,0.0493899,1.2165,0.876045,0.0624156,1.79287,1.05255
2.55,0.0489889,1.2167,0.875554,0.062148,1.79236,1.05257
2.56,0.0485946,1.21689,0.875066,0.0618902,1.79186,1.05259
2.57,0.048206,1.21709,0.874583,0.0616383,1.79136,1.05262
2.58,0.0478211,1.21728,0.874103,0.0613775,1.79087,1.05264
2.59,0.0474418,1.21746,0.873627,0.0611136,1.79037,1.05265
2.6,0.0470598,1.21765,0.873155,0.0608628,1.78989,1.05267
2.61,0.0466876,1.21784,0.872687,0.0606245,1.7894,1.05269
2.62,0.0463224,1.21803,0.872222,0.0603836,1.78892,1.05271
2.63,0.0459603,1.21822,0.871761,0.0601398,1.78845,1.05273
2.64,0.0456101,1.21839,0.871304,0.0598931,1.78798,1.05274
2.65,0.0452644,1.21857,0.87085,0.0596449,1.78751,1.05276
2.66,0.0449227,1.21874,0.870399,0.0593932,1.78705,1.05278
2.67,0.0445912,1.21891,0.869952,0.0591548,1.78659,1.05279
2.68,0.0442641,1.21909,0.869508,0.0589268,1.78613,1.05281
2.69,0.0439386,1.21926,0.869067,0.0587006,1.78568,1.05282
2.7,0.0436192,1.21944,0.86863,0.0584744,1.78523,1.05283
2.71,0.0432993,1.21961,0.868196,0.0582472,1.78478,1.05285
2.72,0.0429874,1.21977,0.867765,0.0580195,1.78434,1.05286
2.73,0.0426744,1.21993,0.867337,0.0577911,1.7839,1.05287
2.74,0.042366,1.22009,0.866912,0.0575623,1.78346,1.05288
2.75,0.0420581,1.22025,0.86649,0.0573338,1.78303,1.05289
2.76,0.0417587,1.2204,0.866071,0.0571022,1.7826,1.0529
2.77,0.0414595,1.22055,0.865656,0.0568682,1.78217,1.05291
2.78,0.0411683,1.2207,0.865243,0.0566454,1.78175,1.05292
2.79,0.0408787,1.22086,0.864833,0.0564294,1.78133,1.05293
2.8,0.0405917,1.22102,0.864426,0.056217,1.78091,1.05294
2.81,0.0403058,1.22118,0.864022,0.056007,1.7805,1.05296
2.82,0.0400207,1.22134,0.863621,0.0557986,1.78008,1.05297
2.83,0.0397386,1.22151,0.863222,0.0555913,1.77967,1.05299
2.84,0.0394658,1.22167,0.862826,0.055385,1.77927,1.053
2.85,0.039189,1.22182,0.862433,0.0551799,1.77886,1.05302
2.86,0.0389262,1.22198,0.862043,0.0549754,1.77846,1.05303
2.87,0.0386617,1.22213,0.861655,0.0547719,1.77806,1.05305
2.88,0.0384019,1.22229,0.86127,0.0545691,1.77767,1.05306
2.89,0.038148,1.22244,0.860888,0.0543675,1.77727,1.05307
2.9,0.0378886,1.22259,0.860508,0.0541671,1.77688,1.05308
2.91,0.0376292,1.22273,0.860131,0.0539674,1.7765,1.0531
2.92,0.0373811,1.22288,0.859756,0.0537645,1.77611,1.05311
2.93,0.0371313,1.22302,0.859384,0.0535609,1.77573,1.05312
2.94,0.0368823,1.22316,0.859014,0.0533628,1.77535,1.05313
2.95,0.0366372,1.2233,0.858647,0.05317,1.77497,1.05314
2.96,0.0363894,1.22344,0.858282,0.0529814,1.7746,1.05315
2.97,0.0361507,1.22359,0.85792,0.0527959,1.77423,1.05316
2.98,0.0359182,1.22373,0.857559,0.0526132,1.77386,1.05317
2.99,0.0356871,1.22387,0.857202,0.0524331,1.77349,1.05318
3,0.0354684,1.22402,0.856846,0.0522552,1.77313,1.05319
3.01,0.0352526,1.22416,0.856493,0.0520793,1.77277,1.0532
3.02,0.0350408,1.2243,0.856142,0.0519055,1.77241,1.05321
3.03,0.034833,1.22444,0.855793,0.0517332,1.77205,1.05321
3.04,0.0346289,1.22458,0.855446,0.0515628,1.7717,1.05322
3.05,0.0344279,1.22472,0.855101,0.0513943,1.77135,1.05323
3.06,0.0342236,1.22486,0.854758,0.0512278,1.771,1.05323
3.07,0.0340207,1.22499,0.854417,0.0510632,1.77065,1.05324
3.08,0.0338197,1.22513,0.854078,0.0509005,1.77031,1.05325
3.09,0.0336213,1.22526,0.853741,0.0507394,1.76997,1.05325
3.1,0.0334263,1.2254,0.853406,0.0505801,1.76963,1.05326
3.11,0.0332329,1.22553,0.853073,0.0504228,1.76929,1.05326
3.12,0.0330366,1.22567,0.852742,0.0502673,1.76895,1.05327
3.13,0.0328426,1.2258,0.852413,0.0501137,1.76862,1.05328
3.14,0.032619,1.22594,0.852086,0.0499615,1.76829,1.05328
3.15,0.0324269,1.22607,0.851761,0.04981,1.76796,1.05329
3.16,0.0322356,1.2262,0.851438,0.0496571,1.76763,1.05329
3.17,0.0320475,1.22633,0.851116,0.0495049,1.76731,1.05329
3.18,0.0318599,1.22646,0.850797,0.0493549,1.76698,1.0533
3.19,0.0316737,1.22659,0.85048,0.0492071,1.76666,1.0533
3.2,0.0314896,1.22673,0.850164,0.0490619,1.76634,1.05331
3.21,0.0313053,1.22686,0.849851,0.048919,1.76602,1.05332
3.22,0.0311202,1.227,0.849539,0.0487784,1.7657,1.05333
3.23,0.0309375,1.22714,0.849229,0.0486397,1.76538,1.05334
3.24,0.0307516,1.22728,0.848921,0.048503,1.76507,1.05336
3.25,0.0305709,1.22742,0.848614,0.0483681,1.76476,1.05337
3.26,0.0303913,1.22756,0.84831,0.048235,1.76445,1.05338
3.27,0.0302146,1.2277,0.848007,0.0481035,1.76414,1.05339
3.28,0.0300396,1.22784,0.847706,0.0479738,1.76383,1.0534
3.29,0.0298687,1.22798,0.847407,0.0478456,1.76352,1.05341
3.3,0.0297021,1.22812,0.847109,0.047719,1.76322,1.05342
3.31,0.0295376,1.22826,0.846813,0.0475937,1.76291,1.05343
3.32,0.0293748,1.22839,0.846519,0.0474694,1.76261,1.05344
3.33,0.0292137,1.22853,0.846226,0.0473458,1.76231,1.05345
3.34,0.0290561,1.22867,0.845935,0.0472228,1.76202,1.05346
3.35,0.0288963,1.2288,0.845646,0.0471005,1.76172,1.05346
3.36,0.02874,1.22894,0.845358,0.0469787,1.76143,1.05347
3.37,0.0285803,1.22907,0.845072,0.0468581,1.76113,1.05348
3.38,0.0284178,1.2292,0.844787,0.0467371,1.76084,1.05349
3.39,0.0282617,1.22934,0.844504,0.0466171,1.76055,1.0535
3.4,0.028107,1.22947,0.844222,0.0464974,1.76026,1.05351
3.41,0.0279536,1.2296,0.843942,0.0463772,1.75998,1.05352
3.42,0.0278045,1.22972,0.843664,0.046258,1.75969,1.05353
3.43,0.0276603,1.22985,0.843387,0.0461397,1.75941,1.05353
3.44,0.0275203,1.22998,0.843111,0.046021,1.75913,1.05354
3.45,0.0273829,1.2301,0.842837,0.0459022,1.75885,1.05355
3.46,0.0272441,1.23023,0.842564,0.0457842,1.75857,1.05356
3.47,0.027108,1.23035,0.842292,0.045667,1.75829,1.05356
3.48,0.0269734,1.23047,0.842022,0.0455504,1.75801,1.05357
3.49,0.0268416,1.23059,0.841753,0.0454318,1.75774,1.05358
3.5,0.0267126,1.23071,0.841486,0.0453134,1.75747,1.05358
3.51,0.026586,1.23083,0.841219,0.0451958,1.75719,1.05359
3.52,0.0264615,1.23095,0.840954,0.0450791,1.75692,1.0536
3.53,0.0263392,1.23107,0.840691,0.0449632,1.75666,1.0536
3.54,0.0262156,1.23118,0.840428,0.044846,1.75639,1.05361
3.55,0.026092,1.23129,0.840167,0.0447295,1.75612,1.05361
3.56,0.0259701,1.23141,0.839907,0.044614,1.75586,1.05362
