time,velocity,ratio,centerX,Xmax,Xmin,Ymax
0,0,1,4.75,3.75,5.75,1
0.01,0.0194434,1,4.74991,3.74991,5.7499,1
0.02,0.0378572,1.00002,4.74962,3.74963,5.7496,1
0.03,0.0553076,1.00003,4.74916,3.74917,5.74911,1.00001
0.04,0.0718452,1.00006,4.74853,3.74855,5.74844,1.00001
0.05,0.087511,1.00009,4.74774,3.74776,5.74761,1.00002
0.06,0.10247,1.00013,4.74679,3.74683,5.74661,1.00002
0.07,0.116723,1.00018,4.7457,3.74577,5.74547,1.00003
0.08,0.130309,1.00023,4.74447,3.74457,5.74418,1.00003
0.09,0.143284,1.00028,4.7431,3.74324,5.74275,1.00004
0.1,0.155686,1.00035,4.74161,3.74179,5.7412,1.00006
0.11,0.167561,1.00044,4.74,3.74022,5.73952,1.00009
0.12,0.178933,1.00053,4.73827,3.73854,5.73773,1.00012
0.13,0.189805,1.00062,4.73643,3.73676,5.73583,1.00015
0.14,0.200189,1.00072,4.73448,3.73488,5.73382,1.00019
0.15,0.210189,1.00083,4.73244,3.73291,5.73169,1.00022
0.16,0.219758,1.00096,4.73029,3.73083,5.72943,1.00026
0.17,0.228962,1.00109,4.72805,3.72866,5.72706,1.00029
0.18,0.237778,1.00124,4.72572,3.72641,5.72458,1.00032
0.19,0.246275,1.00143,4.7233,3.72408,5.722,1.00039
0.2,0.254432,1.00162,4.7208,3.72168,5.71934,1.00045
0.21,0.262315,1.00183,4.71822,3.7192,5.71658,1.00051
0.22,0.26985,1.00205,4.71556,3.71666,5.71371,1.00057
0.23,0.277165,1.00227,4.71283,3.71404,5.71075,1.00063
0.24,0.284121,1.0025,4.71002,3.71135,5.70772,1.00068
0.25,0.290855,1.00276,4.70715,3.70861,5.70462,1.00076
0.26,0.297428,1.00303,4.70421,3.70581,5.70146,1.00085
0.27,0.303724,1.0033,4.70121,3.70295,5.69821,1.00093
0.28,0.30975,1.00358,4.69814,3.70003,5.69489,1.001
0.29,0.315593,1.00385,4.69502,3.69704,5.6915,1.00107
0.3,0.321303,1.00413,4.69184,3.694,5.68808,1.00116
0.31,0.32672,1.00444,4.6886,3.6909,5.68458,1.00126
0.32,0.332051,1.00476,4.68531,3.68775,5.68098,1.00136
0.33,0.337092,1.00507,4.68196,3.68458,5.67737,1.00145
0.34,0.342049,1.00535,4.67857,3.68134,5.67373,1.00153
0.35,0.346665,1.00566,4.67513,3.67808,5.67008,1.00164
0.36,0.351207,1.00598,4.67164,3.67476,5.66636,1.00176
0.37,0.355725,1.00632,4.66811,3.67141,5.66256,1.00187
0.38,0.360073,1.00664,4.66453,3.66801,5.65872,1.00196
0.39,0.364247,1.00695,4.66091,3.66457,5.65486,1.00206
0.4,0.368317,1.00731,4.65725,3.6611,5.65094,1.00219
0.41,0.372238,1.00768,4.65355,3.6576,5.64695,1.00231
0.42,0.376091,1.00803,4.64981,3.65407,5.64293,1.00241
0.43,0.379768,1.00835,4.64603,3.65049,5.6389,1.00251
0.44,0.383406,1.00874,4.64222,3.64689,5.63482,1.00264
0.45,0.386858,1.00912,4.63837,3.64327,5.63068,1.00277
0.46,0.390006,1.00949,4.63448,3.63964,5.62654,1.00288
0.47,0.393031,1.00983,4.63057,3.63595,5.62238,1.00297
0.48,0.396007,1.01023,4.62663,3.63221,5.61812,1.00311
0.49,0.398923,1.01058,4.62265,3.62844,5.61389,1.00323
0.5,0.401688,1.01088,4.61865,3.62462,5.60972,1.00334
0.51,0.404447,1.01116,4.61462,3.62083,5.60554,1.00343
0.52,0.407074,1.01151,4.61057,3.617,5.60129,1.00357
0.53,0.409687,1.01186,4.60648,3.61314,5.59698,1.00369
0.54,0.412265,1.01218,4.60238,3.60924,5.59267,1.00379
0.55,0.414739,1.01249,4.59824,3.60532,5.58831,1.00388
0.56,0.417171,1.01286,4.59408,3.60136,5.58388,1.00401
0.57,0.419456,1.01321,4.5899,3.59737,5.57945,1.00413
0.58,0.421562,1.01352,4.5857,3.59337,5.57503,1.00423
0.59,0.423871,1.01386,4.58147,3.58934,5.57054,1.00433
0.6,0.426129,1.01422,4.57722,3.58528,5.56604,1.00446
0.61,0.428294,1.01453,4.57295,3.58121,5.56156,1.00456
0.62,0.430558,1.01486,4.56866,3.57713,5.557,1.00464
0.63,0.432701,1.0152,4.56435,3.573,5.55243,1.00476
0.64,0.434787,1.0155,4.56001,3.56883,5.5479,1.00487
0.65,0.436806,1.01575,4.55565,3.56464,5.5434,1.00496
0.66,0.438773,1.01602,4.55128,3.56044,5.53884,1.00505
0.67,0.440679,1.01633,4.54688,3.55622,5.53424,1.00517
0.68,0.442567,1.01661,4.54247,3.55198,5.52966,1.00527
0.69,0.444371,1.01688,4.53803,3.54773,5.52505,1.00535
0.7,0.446133,1.01718,4.53358,3.54345,5.52039,1.00545
0.71,0.44789,1.01746,4.52912,3.53915,5.51575,1.00555
0.72,0.449575,1.01772,4.52463,3.53484,5.51111,1.00564
0.73,0.451264,1.01798,4.52013,3.53052,5.50642,1.00571
0.74,0.45288,1.01827,4.51561,3.52618,5.50173,1.00582
0.75,0.454924,1.01854,4.51107,3.52183,5.49703,1.00591
0.76,0.457877,1.01883,4.50651,3.51748,5.49225,1.00598
0.77,0.460751,1.01911,4.50192,3.51311,5.48754,1.00608
0.78,0.462868,1.01933,4.4973,3.50869,5.4829,1.00619
0.79,0.464879,1.01953,4.49266,3.50423,5.47822,1.00627
0.8,0.466496,1.01974,4.48801,3.49973,5.47347,1.00635
0.81,0.468337,1.02002,4.48333,3.49526,5.46869,1.00646
0.82,0.470082,1.02028,4.47864,3.49079,5.46389,1.00656
0.83,0.471725,1.02054,4.47393,3.48629,5.45901,1.00662
0.84,0.473255,1.02085,4.46921,3.48176,5.45412,1.00674
0.85,0.474922,1.02111,4.46447,3.4772,5.44924,1.00684
0.86,0.476366,1.02136,4.45972,3.47261,5.4443,1.00691
0.87,0.477884,1.02165,4.45495,3.46802,5.43935,1.00701
0.88,0.479276,1.02191,4.45016,3.4634,5.43442,1.0071
0.89,0.480713,1.02219,4.44536,3.45877,5.4294,1.00718
0.9,0.482189,1.02245,4.44055,3.45412,5.42442,1.00726
0.91,0.483512,1.02268,4.43572,3.44946,5.4195,1.00736
0.92,0.484919,1.02289,4.43088,3.44475,5.41453,1.00744
0.93,0.486159,1.0231,4.42603,3.44001,5.40952,1.00751
0.94,0.487323,1.02334,4.42116,3.43528,5.40454,1.00761
0.95,0.48864,1.02356,4.41628,3.43053,5.39951,1.00768
0.96,0.489777,1.02377,4.41139,3.42578,5.39445,1.00773
0.97,0.49086,1.02402,4.40649,3.42101,5.38941,1.00784
0.98,0.492052,1.02423,4.40157,3.41622,5.38435,1.00791
0.99,0.493147,1.02443,4.39665,3.41142,5.37927,1.00796
1,0.494166,1.02465,4.39171,3.40662,5.37421,1.00805
1.01,0.495172,1.02488,4.38677,3.40181,5.36909,1.00812
1.02,0.496085,1.02508,4.38181,3.39699,5.36399,1.00817
1.03,0.497202,1.02526,4.37685,3.39218,5.35898,1.00824
1.04,0.498161,1.02542,4.37187,3.38736,5.35399,1.00831
1.05,0.49916,1.02557,4.36689,3.3825,5.34893,1.00836
1.06,0.500114,1.02573,4.36189,3.3776,5.34385,1.00842
1.07,0.501055,1.0259,4.35689,3.3727,5.33876,1.00849
1.08,0.502013,1.02609,4.35187,3.36782,5.3336,1.00853
1.09,0.503095,1.02628,4.34685,3.36293,5.32845,1.00858
1.1,0.504113,1.02647,4.34181,3.35801,5.32331,1.00865
1.11,0.505032,1.02664,4.33677,3.35307,5.31811,1.0087
1.12,0.505899,1.0268,4.33171,3.34812,5.31293,1.00874
1.13,0.506772,1.02699,4.32665,3.34316,5.30775,1.00881
1.14,0.507745,1.02717,4.32158,3.33818,5.30251,1.00885
1.15,0.508712,1.0273,4.3165,3.33319,5.29734,1.00888
1.16,0.509595,1.02745,4.31141,3.32821,5.29221,1.00895
1.17,0.51048,1.02759,4.30631,3.3232,5.28701,1.009
1.18,0.511328,1.0277,4.3012,3.31815,5.28181,1.00902
1.19,0.512171,1.02783,4.29608,3.31308,5.27663,1.00909
1.2,0.512946,1.02796,4.29096,3.30803,5.27139,1.00913
1.21,0.513735,1.02807,4.28582,3.30297,5.26616,1.00915
1.22,0.51453,1.02821,4.28068,3.2979,5.26095,1.00922
1.23,0.515326,1.02834,4.27553,3.29282,5.2557,1.00925
1.24,0.51606,1.02843,4.27038,3.28773,5.25046,1.00927
1.25,0.516807,1.02858,4.26521,3.28264,5.2452,1.00933
1.26,0.517545,1.02872,4.26004,3.27754,5.23991,1.00936
1.27,0.518386,1.02878,4.25486,3.27244,5.23472,1.00937
1.28,0.519169,1.02886,4.24968,3.26736,5.22959,1.00943
1.29,0.519933,1.02895,4.24448,3.26228,5.22439,1.00946
1.3,0.520648,1.02902,4.23928,3.25715,5.21916,1.00947
1.31,0.521334,1.02911,4.23407,3.25199,5.21393,1.00953
1.32,0.521988,1.02922,4.22886,3.24684,5.20863,1.00956
1.33,0.522662,1.02932,4.22363,3.24171,5.20333,1.00957
1.34,0.523313,1.02946,4.2184,3.23658,5.19804,1.00962
1.35,0.523901,1.02959,4.21317,3.23143,5.1927,1.00965
1.36,0.524495,1.02967,4.20793,3.22625,5.18739,1.00966
1.37,0.525107,1.0298,4.20268,3.22107,5.18206,1.00971
1.38,0.525757,1.02992,4.19743,3.21588,5.17668,1.00974
1.39,0.526453,1.02997,4.19217,3.21067,5.17138,1.00975
1.4,0.527138,1.03007,4.1869,3.20546,5.16611,1.0098
1.41,0.527795,1.03015,4.18162,3.20025,5.16078,1.00982
1.42,0.528492,1.03019,4.17634,3.19499,5.15545,1.00983
1.43,0.529134,1.03027,4.17106,3.18972,5.15012,1.00987
1.44,0.529754,1.03035,4.16576,3.18445,5.14475,1.00989
1.45,0.530319,1.03039,4.16046,3.17918,5.13941,1.0099
1.46,0.530973,1.03049,4.15516,3.17392,5.13405,1.00995
1.47,0.531627,1.03056,4.14985,3.16864,5.12867,1.00996
1.48,0.53216,1.03059,4.14453,3.16335,5.12333,1.00997
1.49,0.532759,1.03069,4.1392,3.15806,5.11792,1.01001
1.5,0.533207,1.03075,4.13387,3.15278,5.11255,1.01002
1.51,0.533784,1.03075,4.12854,3.14749,5.10728,1.01003
1.52,0.534339,1.0308,4.1232,3.14222,5.10199,1.01006
1.53,0.534912,1.03085,4.11785,3.13696,5.09664,1.01007
1.54,0.535479,1.03087,4.1125,3.13164,5.0913,1.01008
1.55,0.536051,1.03093,4.10715,3.1263,5.08591,1.01012
1.56,0.536584,1.03099,4.10178,3.12098,5.08049,1.01012
1.57,0.53715,1.03105,4.09641,3.11567,5.07511,1.01013
1.58,0.537714,1.03114,4.09104,3.11036,5.06967,1.01016
1.59,0.538257,1.03119,4.08566,3.10502,5.06423,1.01016
1.6,0.538783,1.03124,4.08028,3.09967,5.05883,1.01018
1.61,0.539325,1.03134,4.07489,3.09431,5.05334,1.01021
1.62,0.539899,1.03137,4.06949,3.08895,5.0479,1.0102
1.63,0.540476,1.0314,4.06409,3.08358,5.04253,1.01023
1.64,0.541014,1.03146,4.05868,3.07822,5.0371,1.01025
1.65,0.541567,1.03148,4.05327,3.07284,5.03166,1.01024
1.66,0.542109,1.03152,4.04785,3.06742,5.02624,1.01028
1.67,0.542643,1.03156,4.04243,3.06199,5.02076,1.0103
1.68,0.543122,1.03158,4.037,3.05658,5.0153,1.01028
1.69,0.543634,1.03164,4.03157,3.05117,5.00985,1.01033
1.7,0.544139,1.03169,4.02613,3.04575,5.00436,1.01034
1.71,0.544784,1.03169,4.02069,3.04032,4.9989,1.01033
1.72,0.545183,1.03178,4.01524,3.03489,4.99338,1.01037
1.73,0.545597,1.03183,4.00979,3.02947,4.98788,1.01037
1.74,0.546016,1.0318,4.00433,3.02405,4.9825,1.01037
1.75,0.546424,1.03182,3.99887,3.01864,4.97712,1.0104
1.76,0.546831,1.03186,3.9934,3.01325,4.97167,1.01041
1.77,0.547218,1.03187,3.98793,3.00783,4.96624,1.01041
1.78,0.547606,1.03191,3.98246,3.00236,4.96074,1.01044
1.79,0.54773,1.03195,3.97698,2.99691,4.95522,1.01044
1.8,0.548133,1.03201,3.9715,2.9915,4.94973,1.01045
1.81,0.548561,1.0321,3.96602,2.98609,4.94419,1.01048
1.82,0.548936,1.03215,3.96053,2.98066,4.93865,1.01047
1.83,0.549366,1.03222,3.95504,2.97521,4.93312,1.0105
1.84,0.549803,1.03231,3.94955,2.96976,4.92754,1.01052
1.85,0.550241,1.03233,3.94405,2.9643,4.92202,1.01051
1.86,0.550694,1.03237,3.93854,2.95883,4.91654,1.01054
1.87,0.551143,1.03243,3.93304,2.95336,4.911,1.01056
1.88,0.551583,1.03244,3.92752,2.94788,4.90547,1.01054
1.89,0.551989,1.03249,3.92201,2.94236,4.89994,1.01059
1.9,0.552385,1.03252,3.91648,2.93684,4.89436,1.0106
1.91,0.552752,1.03254,3.91096,2.93133,4.88882,1.01059
1.92,0.553112,1.0326,3.90543,2.92582,4.88326,1.01063
1.93,0.553512,1.03265,3.8999,2.92031,4.87768,1.01063
1.94,0.553854,1.03266,3.89436,2.91479,4.87213,1.01064
1.95,0.554149,1.03274,3.88882,2.90927,4.86652,1.01067
1.96,0.554555,1.03276,3.88328,2.90376,4.86097,1.01067
1.97,0.554956,1.03274,3.87773,2.89824,4.85551,1.01068
1.98,0.555343,1.03278,3.87218,2.89274,4.85,1.01071
1.99,0.555724,1.0328,3.86663,2.88726,4.84445,1.0107
2,0.555997,1.03283,3.86107,2.88172,4.83891,1.01072
2.01,0.556381,1.03288,3.85551,2.87617,4.8333,1.01074
2.02,0.556744,1.0329,3.84994,2.87063,4.8277,1.01073
2.03,0.557103,1.03298,3.84437,2.86512,4.82211,1.01077
2.04,0.557444,1.03305,3.8388,2.85959,4.81647,1.01078
2.05,0.557788,1.03308,3.83323,2.85405,4.81087,1.01077
2.06,0.558147,1.03317,3.82765,2.8485,4.80521,1.01081
2.07,0.558534,1.03323,3.82206,2.84295,4.79956,1.01082
2.08,0.558929,1.03323,3.81648,2.83738,4.794,1.01082
2.09,0.559334,1.03329,3.81089,2.83182,4.7884,1.01085
2.1,0.559703,1.03333,3.80529,2.82627,4.78277,1.01085
2.11,0.560098,1.03335,3.79969,2.82068,4.77717,1.01087
2.12,0.560404,1.03339,3.79409,2.81507,4.77152,1.0109
2.13,0.560731,1.03341,3.78849,2.80947,4.76587,1.01089
2.14,0.561065,1.03345,3.78288,2.80387,4.76025,1.01092
2.15,0.561385,1.03351,3.77727,2.79828,4.75458,1.01093
2.16,0.561709,1.03351,3.77165,2.79268,4.74895,1.01092
2.17,0.561998,1.0336,3.76603,2.78707,4.74326,1.01096
2.18,0.562312,1.03365,3.76041,2.78148,4.73759,1.01097
2.19,0.562632,1.03362,3.75479,2.77588,4.73204,1.01096
2.2,0.562941,1.03364,3.74916,2.7703,4.72648,1.011
2.21,0.563245,1.03368,3.74353,2.76474,4.72086,1.011
2.22,0.56354,1.0337,3.7379,2.75916,4.71525,1.01101
2.23,0.563822,1.03376,3.73226,2.75354,4.70958,1.01104
2.24,0.564052,1.03379,3.72662,2.74791,4.70389,1.01103
2.25,0.564327,1.03385,3.72098,2.74233,4.69823,1.01106
2.26,0.56462,1.03395,3.71534,2.73676,4.69252,1.01108
2.27,0.564843,1.03399,3.70969,2.73117,4.68683,1.01107
2.28,0.565133,1.03409,3.70404,2.72556,4.68111,1.0111
2.29,0.565114,1.03417,3.69839,2.71995,4.67537,1.01112
2.3,0.565241,1.03418,3.69274,2.71433,4.66973,1.01112
2.31,0.565423,1.03424,3.68709,2.70871,4.66407,1.01116
2.32,0.56567,1.0343,3.68143,2.7031,4.65837,1.01117
2.33,0.565913,1.03433,3.67578,2.69747,4.6527,1.01117
2.34,0.566174,1.03439,3.67012,2.69181,4.64699,1.01121
2.35,0.56638,1.03442,3.66445,2.68615,4.64127,1.01121
2.36,0.566581,1.03446,3.65879,2.6805,4.63559,1.01123
2.37,0.566803,1.03453,3.65312,2.67486,4.62987,1.01125
2.38,0.566881,1.03454,3.64745,2.66921,4.62417,1.01124
2.39,0.566964,1.03462,3.64179,2.66356,4.61844,1.01128
2.4,0.567219,1.03468,3.63612,2.65792,4.61272,1.0113
2.41,0.566918,1.03465,3.63045,2.65228,4.60712,1.01129
2.42,0.567037,1.03469,3.62478,2.64665,4.6015,1.01133
2.43,0.567227,1.03473,3.61911,2.64105,4.59583,1.01134
2.44,0.567431,1.03476,3.61343,2.63543,4.59018,1.01134
2.45,0.567648,1.03482,3.60776,2.62978,4.58446,1.01137
2.46,0.567849,1.03485,3.60208,2.62411,4.57874,1.01137
2.47,0.567805,1.03491,3.59641,2.61848,4.57304,1.01139
2.48,0.568521,1.035,3.59072,2.61286,4.56729,1.01142
2.49,0.569087,1.03504,3.58504,2.60723,4.56156,1.01141
2.5,0.569504,1.03513,3.57935,2.60157,4.5558,1.01144
2.51,0.569872,1.03521,3.57365,2.59591,4.55002,1.01146
2.52,0.570211,1.03522,3.56795,2.59024,4.54433,1.01145
2.53,0.570568,1.03528,3.56225,2.58457,4.53862,1.0115
2.54,0.570898,1.03534,3.55654,2.57891,4.53287,1.0115
2.55,0.571226,1.03537,3.55083,2.57324,4.52716,1.01151
2.56,0.571515,1.03543,3.54512,2.56753,4.52139,1.01155
2.57,0.571766,1.03546,3.5394,2.56181,4.51562,1.01154
2.58,0.572011,1.03551,3.53368,2.55612,4.50988,1.01157
2.59,0.572265,1.03558,3.52796,2.55042,4.5041,1.01159
2.6,0.572677,1.03559,3.52224,2.54473,4.49836,1.01158
2.61,0.572865,1.0357,3.51651,2.53902,4.49254,1.01163
2.62,0.573088,1.03575,3.51078,2.53332,4.48677,1.01164
2.63,0.573316,1.03573,3.50505,2.52763,4.48112,1.01164
2.64,0.573528,1.03577,3.49932,2.52195,4.47543,1.01168
2.65,0.573736,1.03582,3.49358,2.51629,4.4697,1.01169
2.66,0.573931,1.03587,3.48784,2.51063,4.46398,1.0117
2.67,0.574112,1.03595,3.4821,2.50493,4.45819,1.01174
2.68,0.574122,1.03597,3.47636,2.49919,4.4524,1.01173
2.69,0.574299,1.03606,3.47062,2.49352,4.44662,1.01177
2.7,0.574478,1.03618,3.46488,2.48786,4.4408,1.01179
2.71,0.574666,1.03622,3.45913,2.48219,4.43502,1.01179
2.72,0.574858,1.03636,3.45338,2.4765,4.42918,1.01183
2.73,0.575057,1.03643,3.44764,2.4708,4.42336,1.01185
2.74,0.57526,1.03647,3.44189,2.4651,4.41762,1.01186
2.75,0.575456,1.03655,3.43613,2.45939,4.41184,1.0119
2.76,0.575663,1.0366,3.43038,2.4537,4.40604,1.0119
2.77,0.575851,1.03667,3.42462,2.44798,4.40026,1.01193
2.78,0.576041,1.03674,3.41886,2.44224,4.39444,1.01196
2.79,0.576181,1.03676,3.4131,2.43648,4.38864,1.01196
2.8,0.576331,1.03684,3.40734,2.43075,4.38283,1.012
2.81,0.576479,1.03692,3.40157,2.42502,4.377,1.01202
2.82,0.576545,1.03695,3.39581,2.41929,4.37121,1.01202
2.83,0.576707,1.03706,3.39004,2.41355,4.36535,1.01207
2.84,0.576892,1.03709,3.38428,2.40781,4.35958,1.01207
2.85,0.577071,1.03709,3.37851,2.40209,4.35388,1.01209
2.86,0.577219,1.03715,3.37274,2.39637,4.34812,1.01213
2.87,0.577404,1.03719,3.36696,2.39068,4.34235,1.01213
2.88,0.577551,1.03728,3.36119,2.38497,4.33655,1.01216
2.89,0.577709,1.03735,3.35541,2.37922,4.33071,1.01219
2.9,0.577823,1.03737,3.34964,2.37346,4.3249,1.01218
2.91,0.57788,1.03749,3.34386,2.36775,4.31906,1.01223
2.92,0.578013,1.03758,3.33808,2.36204,4.31321,1.01224
2.93,0.578164,1.03765,3.3323,2.35631,4.30737,1.01226
2.94,0.578329,1.03776,3.32652,2.35057,4.30149,1.0123
2.95,0.578499,1.0378,3.32074,2.34483,4.29569,1.0123
2.96,0.57867,1.03786,3.31495,2.33909,4.2899,1.01233
2.97,0.578836,1.03793,3.30916,2.33334,4.28406,1.01236
2.98,0.57901,1.03796,3.30337,2.32761,4.27825,1.01235
2.99,0.579184,1.03805,3.29758,2.32184,4.27241,1.0124
3,0.579325,1.03811,3.29179,2.31606,4.26655,1.01241
3.01,0.579431,1.03813,3.286,2.31027,4.26074,1.01242
3.02,0.579554,1.03822,3.2802,2.3045,4.25487,1.01246
3.03,0.579498,1.03826,3.27441,2.29874,4.24904,1.01246
3.04,0.57951,1.03835,3.26862,2.29297,4.24317,1.01249
3.05,0.579583,1.03842,3.26282,2.2872,4.23731,1.01252
3.06,0.579677,1.0384,3.25703,2.28145,4.23158,1.01251
3.07,0.579778,1.03844,3.25123,2.27569,4.22583,1.01255
3.08,0.579889,1.0385,3.24543,2.26995,4.22002,1.01257
3.09,0.579958,1.03854,3.23963,2.26424,4.21424,1.01257
3.1,0.580057,1.03864,3.23383,2.2585,4.20838,1.01261
3.11,0.580109,1.03869,3.22803,2.25273,4.20253,1.01262
3.12,0.580129,1.03875,3.22223,2.24696,4.19669,1.01264
3.13,0.580111,1.03887,3.21643,2.24124,4.19081,1.01267
3.14,0.580238,1.03893,3.21063,2.23552,4.18497,1.01267
3.15,0.580358,1.03905,3.20483,2.22978,4.17907,1.01271
3.16,0.580493,1.03914,3.19902,2.22402,4.17319,1.01273
3.17,0.580596,1.03917,3.19322,2.21827,4.16739,1.01273
3.18,0.580641,1.03926,3.18741,2.21251,4.16155,1.01278
3.19,0.580771,1.03932,3.18161,2.20675,4.1557,1.01279
3.2,0.580895,1.03938,3.1758,2.201,4.14986,1.01281
3.21,0.580976,1.03947,3.16999,2.19522,4.14398,1.01284
3.22,0.581068,1.03949,3.16418,2.18941,4.13814,1.01284
3.23,0.581168,1.03957,3.15837,2.18363,4.13227,1.01288
3.24,0.580872,1.03964,3.15256,2.17784,4.1264,1.0129
3.25,0.580859,1.03968,3.14675,2.17207,4.12055,1.01289
3.26,0.580854,1.03979,3.14094,2.16629,4.11465,1.01294
3.27,0.5809,1.03981,3.13513,2.16051,4.10886,1.01296
3.28,0.580964,1.03982,3.12933,2.15475,4.10311,1.01297
3.29,0.581016,1.03988,3.12352,2.14898,4.0973,1.013
3.3,0.581066,1.03991,3.11771,2.14324,4.0915,1.013
3.31,0.581096,1.04,3.1119,2.13752,4.08566,1.01304
3.32,0.581137,1.04008,3.10609,2.13175,4.07979,1.01306
3.33,0.581139,1.0401,3.10028,2.12596,4.07395,1.01305
3.34,0.581131,1.04021,3.09446,2.1202,4.06807,1.0131
3.35,0.581131,1.04029,3.08865,2.11446,4.0622,1.01311
3.36,0.581154,1.04037,3.08284,2.10871,4.05633,1.01312
3.37,0.5812,1.04048,3.07703,2.10295,4.05043,1.01315
3.38,0.581245,1.0405,3.07122,2.09718,4.04461,1.01316
3.39,0.581286,1.04056,3.06541,2.09141,4.03879,1.01318
3.4,0.581328,1.04063,3.0596,2.08564,4.03293,1.01321
3.41,0.581391,1.04066,3.05378,2.07988,4.02711,1.0132
3.42,0.581447,1.04076,3.04797,2.07411,4.02124,1.01324
3.43,0.581434,1.04081,3.04216,2.06831,4.01537,1.01326
3.44,0.581475,1.04083,3.03634,2.0625,4.00953,1.01326
3.45,0.581432,1.04092,3.03053,2.05672,4.00365,1.0133
3.46,0.581582,1.04095,3.02471,2.05093,3.99782,1.01331
3.47,0.581546,1.04105,3.0189,2.04515,3.99191,1.01333
3.48,0.581542,1.04111,3.01308,2.03937,3.98606,1.01336
3.49,0.581555,1.04109,3.00727,2.03359,3.98031,1.01336
3.5,0.581569,1.04114,3.00145,2.02782,3.97453,1.0134
3.51,0.58156,1.04119,2.99564,2.02206,3.96871,1.01342
3.52,0.581528,1.04124,2.98982,2.01633,3.9629,1.01342
3.53,0.581513,1.04136,2.98401,2.01061,3.95703,1.01347
3.54,0.581443,1.04141,2.97819,2.00483,3.95118,1.01347
3.55,0.581191,1.04147,2.97238,1.99904,3.94531,1.0135
3.56,0.581112,1.04159,2.96657,1.9933,3.93943,1.01353
3.57,0.581071,1.04166,2.96076,1.98758,3.93357,1.01353
3.58,0.581039,1.0418,2.95495,1.98185,3.92766,1.01357
3.59,0.581005,1.04188,2.94914,1.97611,3.92181,1.0136
3.6,0.580752,1.04192,2.94333,1.97036,3.916,1.0136
3.61,0.580716,1.04202,2.93753,1.96462,3.91015,1.01365
3.62,0.580607,1.04208,2.93172,1.95887,3.90431,1.01366
3.63,0.580526,1.04217,2.92591,1.95314,3.89846,1.01368
3.64,0.580448,1.04227,2.92011,1.94738,3.89259,1.01372
3.65,0.580331,1.0423,2.91431,1.9416,3.88676,1.01372
3.66,0.57998,1.04239,2.90851,1.93582,3.88089,1.01376
3.67,0.579939,1.04247,2.90271,1.93007,3.87504,1.01379
3.68,0.579978,1.04253,2.89691,1.92432,3.86919,1.01379
3.69,0.580002,1.04265,2.89111,1.91857,3.86331,1.01384
3.7,0.580071,1.04267,2.88531,1.91281,3.85754,1.01386
3.71,0.5801,1.0427,2.87951,1.90706,3.85177,1.01388
3.72,0.580116,1.04279,2.87371,1.90133,3.84596,1.01392
3.73,0.580122,1.04283,2.86791,1.8956,3.84016,1.01392
3.74,0.5801,1.04296,2.86211,1.8899,3.8343,1.01396
