time,velocity,ratio,centerX,Xmax,Xmin,Ymax
0,0,1,3.5,2.5,4.5,1
0.01,0.0190838,0.99999,3.49991,2.49989,4.49993,1.00001
0.02,0.0370514,1,3.49964,2.49963,4.49965,1.00001
0.03,0.0540239,1.00002,3.4992,2.49919,4.49919,1.00002
0.04,0.0700647,1.00004,3.4986,2.49859,4.49856,1.00002
0.05,0.085226,1.00006,3.49783,2.49783,4.49776,1.00003
0.06,0.0996569,1.00008,3.49692,2.49693,4.49682,1.00003
0.07,0.113387,1.0001,3.49587,2.49588,4.49573,1.00003
0.08,0.126452,1.00013,3.49469,2.4947,4.49451,1.00003
0.09,0.138907,1.00015,3.49337,2.4934,4.49317,1.00003
0.1,0.150783,1.00016,3.49194,2.49199,4.4917,1.00002
0.11,0.162144,1.00021,3.49039,2.49046,4.49013,1.00004
0.12,0.172996,1.00025,3.48872,2.48882,4.48845,1.00006
0.13,0.183388,1.00029,3.48695,2.48709,4.48668,1.00008
0.14,0.193298,1.00032,3.48508,2.48526,4.48483,1.0001
0.15,0.202785,1.00033,3.48311,2.48335,4.48292,1.00011
0.16,0.211885,1.00033,3.48104,2.48133,4.48092,1.00013
0.17,0.220665,1.00034,3.47889,2.47922,4.47882,1.00014
0.18,0.229022,1.00036,3.47665,2.47703,4.47662,1.00015
0.19,0.237028,1.0004,3.47433,2.47477,4.47432,1.00018
0.2,0.244782,1.00047,3.47193,2.47243,4.47193,1.00021
0.21,0.252201,1.00055,3.46945,2.47004,4.46944,1.00025
0.22,0.259359,1.00063,3.4669,2.46758,4.4669,1.00028
0.23,0.266224,1.0007,3.46428,2.46505,4.46428,1.00031
0.24,0.272779,1.00078,3.4616,2.46245,4.46158,1.00034
0.25,0.279136,1.00088,3.45884,2.45979,4.45878,1.00037
0.26,0.285338,1.00102,3.45603,2.45708,4.45589,1.00043
0.27,0.291278,1.00118,3.45315,2.45433,4.45293,1.00048
0.28,0.297013,1.00133,3.45022,2.45153,4.44993,1.00053
0.29,0.302629,1.00147,3.44723,2.44864,4.44686,1.00058
0.3,0.30798,1.00161,3.44418,2.4457,4.44371,1.00062
0.31,0.313076,1.0018,3.44108,2.4427,4.44047,1.00069
0.32,0.318113,1.002,3.43793,2.43966,4.43717,1.00076
0.33,0.322908,1.0022,3.43473,2.43657,4.43383,1.00082
0.34,0.327663,1.00242,3.43148,2.43346,4.43039,1.00088
0.35,0.332093,1.00265,3.42819,2.43031,4.42689,1.00093
0.36,0.33655,1.00293,3.42485,2.42713,4.42334,1.00103
0.37,0.34073,1.00319,3.42147,2.42393,4.41978,1.00111
0.38,0.344819,1.00345,3.41805,2.42069,4.4162,1.00119
0.39,0.348753,1.0037,3.41458,2.41741,4.41255,1.00127
0.4,0.352674,1.00398,3.41108,2.41409,4.40885,1.00135
0.41,0.356358,1.00429,3.40754,2.41074,4.4051,1.00146
0.42,0.359975,1.0046,3.40396,2.40739,4.40133,1.00156
0.43,0.363474,1.00491,3.40035,2.40401,4.3975,1.00165
0.44,0.366901,1.00523,3.3967,2.40058,4.39362,1.00173
0.45,0.370229,1.0056,3.39302,2.39714,4.38968,1.00185
0.46,0.373424,1.00596,3.38931,2.39368,4.38574,1.00197
0.47,0.376524,1.00634,3.38556,2.39022,4.38175,1.00207
0.48,0.379485,1.0067,3.38178,2.38671,4.37769,1.00217
0.49,0.382393,1.00709,3.37798,2.38314,4.37361,1.0023
0.5,0.385212,1.00747,3.37415,2.37953,4.3695,1.00242
0.51,0.387964,1.00786,3.37028,2.37587,4.36531,1.00254
0.52,0.390627,1.00824,3.36639,2.37218,4.36109,1.00265
0.53,0.393207,1.00863,3.36248,2.36852,4.35692,1.00278
0.54,0.395854,1.00902,3.35854,2.36485,4.35276,1.00293
0.55,0.398332,1.00942,3.35457,2.36116,4.34855,1.00305
0.56,0.40079,1.00982,3.35058,2.35746,4.34429,1.00317
0.57,0.403142,1.01023,3.34656,2.35372,4.34003,1.00332
0.58,0.40545,1.01065,3.34252,2.34995,4.33573,1.00347
0.59,0.407678,1.01109,3.33846,2.34617,4.33137,1.0036
0.6,0.409874,1.01152,3.33437,2.34239,4.32697,1.00372
0.61,0.411943,1.01198,3.33027,2.33857,4.32256,1.00388
0.62,0.414037,1.01246,3.32614,2.33472,4.3181,1.00404
0.63,0.416003,1.01294,3.322,2.33087,4.31359,1.00418
0.64,0.418043,1.01341,3.31783,2.32702,4.30906,1.00431
0.65,0.419971,1.01394,3.31364,2.32312,4.30446,1.00448
0.66,0.421783,1.01446,3.30943,2.31917,4.29982,1.00465
0.67,0.42367,1.01495,3.30521,2.31521,4.29519,1.00479
0.68,0.42546,1.01542,3.30097,2.31123,4.29058,1.00494
0.69,0.427242,1.01595,3.29671,2.30725,4.28593,1.00512
0.7,0.428944,1.01649,3.29243,2.30327,4.28124,1.00529
0.71,0.430639,1.017,3.28813,2.29929,4.27656,1.00544
0.72,0.43226,1.01755,3.28382,2.29531,4.27184,1.00561
0.73,0.43385,1.01813,3.27949,2.29129,4.26708,1.0058
0.74,0.435361,1.01868,3.27515,2.28727,4.26231,1.00597
0.75,0.436899,1.01924,3.27079,2.28326,4.25752,1.00612
0.76,0.438333,1.01986,3.26642,2.27925,4.25269,1.00632
0.77,0.439756,1.02046,3.26203,2.27521,4.24785,1.0065
0.78,0.441046,1.02109,3.25763,2.27118,4.24295,1.00668
0.79,0.442393,1.02173,3.25321,2.26717,4.23802,1.00684
0.8,0.443674,1.02239,3.24879,2.26315,4.23313,1.00705
0.81,0.444937,1.02298,3.24435,2.25909,4.22831,1.00723
0.82,0.446148,1.02353,3.23989,2.25499,4.22347,1.0074
0.83,0.447356,1.02411,3.23543,2.25085,4.2186,1.00759
0.84,0.448541,1.02468,3.23095,2.24668,4.21373,1.0078
0.85,0.449737,1.02528,3.22646,2.24256,4.20882,1.00799
0.86,0.450876,1.0259,3.22196,2.23845,4.20386,1.00816
0.87,0.452037,1.02657,3.21745,2.23435,4.1989,1.00838
0.88,0.453192,1.02723,3.21292,2.23022,4.1939,1.00858
0.89,0.454242,1.02789,3.20839,2.22606,4.18886,1.00877
0.9,0.455315,1.02856,3.20384,2.22191,4.18381,1.00896
0.91,0.456312,1.02928,3.19929,2.21776,4.17871,1.00918
0.92,0.457391,1.02999,3.19472,2.21358,4.17356,1.00938
0.93,0.458405,1.03067,3.19015,2.20938,4.16843,1.00957
0.94,0.459411,1.03139,3.18556,2.20519,4.16332,1.00979
0.95,0.460401,1.03212,3.18096,2.201,4.15816,1.01001
0.96,0.461336,1.0328,3.17635,2.19676,4.153,1.01021
0.97,0.462227,1.03349,3.17174,2.19249,4.14783,1.01041
0.98,0.463122,1.03421,3.16711,2.18821,4.14263,1.01064
0.99,0.46394,1.03493,3.16248,2.18393,4.13742,1.01086
1,0.464783,1.03563,3.15784,2.17966,4.1322,1.01105
1.01,0.465604,1.0364,3.15319,2.1754,4.12694,1.01129
1.02,0.466387,1.03715,3.14853,2.17114,4.12169,1.01151
1.03,0.46712,1.03789,3.14387,2.16686,4.11643,1.01172
1.04,0.467488,1.03866,3.1392,2.16258,4.11111,1.01194
1.05,0.468298,1.03944,3.13452,2.15831,4.10585,1.01218
1.06,0.46907,1.04018,3.12983,2.15404,4.10062,1.0124
1.07,0.469802,1.04091,3.12514,2.14976,4.09536,1.0126
1.08,0.47051,1.0417,3.12044,2.14549,4.0901,1.01285
1.09,0.471197,1.04248,3.11574,2.14123,4.08482,1.01308
1.1,0.471888,1.04325,3.11102,2.13696,4.07951,1.01329
1.11,0.472538,1.04403,3.1063,2.13264,4.07419,1.01352
1.12,0.473164,1.04481,3.10158,2.12829,4.06886,1.01376
1.13,0.47375,1.04557,3.09684,2.12391,4.06349,1.01398
1.14,0.474396,1.04634,3.0921,2.11955,4.05812,1.0142
1.15,0.474972,1.04718,3.08736,2.11523,4.05273,1.01445
1.16,0.47551,1.04802,3.08261,2.1109,4.04728,1.01469
1.17,0.476076,1.04883,3.07785,2.10657,4.04187,1.0149
1.18,0.476693,1.04966,3.07309,2.10222,4.03646,1.01515
1.19,0.477279,1.0505,3.06832,2.09786,4.03102,1.01539
1.2,0.477801,1.05132,3.06355,2.09352,4.02559,1.01561
1.21,0.478324,1.05215,3.05877,2.08915,4.02014,1.01584
1.22,0.478876,1.05301,3.05399,2.08478,4.01467,1.0161
1.23,0.479398,1.05385,3.0492,2.08041,4.0092,1.01633
1.24,0.479893,1.05468,3.0444,2.07604,4.00372,1.01654
1.25,0.480405,1.05555,3.0396,2.07163,3.99822,1.0168
1.26,0.480857,1.0564,3.0348,2.0672,3.99268,1.01704
1.27,0.481204,1.05725,3.02999,2.06275,3.98712,1.01726
1.28,0.481577,1.05809,3.02518,2.05831,3.98163,1.01752
1.29,0.481958,1.0589,3.02036,2.05388,3.97619,1.01777
1.3,0.482379,1.05971,3.01554,2.04947,3.97075,1.018
1.31,0.482759,1.06054,3.01072,2.04507,3.9653,1.01824
1.32,0.48317,1.06138,3.00589,2.04065,3.95984,1.0185
1.33,0.483591,1.06223,3.00105,2.03623,3.95435,1.01874
1.34,0.48397,1.06308,2.99622,2.03183,3.94885,1.01897
1.35,0.484381,1.06398,2.99138,2.02743,3.94333,1.01924
1.36,0.48469,1.06488,2.98653,2.02303,3.93778,1.01949
1.37,0.485002,1.06577,2.98169,2.01865,3.93223,1.01972
1.38,0.485299,1.06675,2.97684,2.0143,3.92663,1.01999
1.39,0.485548,1.06771,2.97198,2.00991,3.92101,1.02025
1.4,0.485801,1.0686,2.96713,2.00548,3.91543,1.02048
1.41,0.48595,1.0695,2.96227,2.00102,3.90984,1.02074
1.42,0.485506,1.07042,2.95742,1.99654,3.90424,1.02101
1.43,0.485846,1.07134,2.95256,1.99212,3.89864,1.02126
1.44,0.486196,1.07229,2.9477,1.98773,3.89302,1.02151
1.45,0.486618,1.07328,2.94284,1.98334,3.88739,1.02179
1.46,0.487024,1.07423,2.93797,1.97893,3.88177,1.02205
1.47,0.487314,1.07518,2.9331,1.97451,3.87612,1.02228
1.48,0.487635,1.07618,2.92823,1.9701,3.87047,1.02257
1.49,0.487984,1.07717,2.92335,1.96569,3.8648,1.02284
1.5,0.488293,1.07814,2.91847,1.96125,3.85912,1.02308
1.51,0.488629,1.0791,2.91359,1.95682,3.8535,1.02335
1.52,0.488855,1.08007,2.9087,1.9524,3.84789,1.02362
1.53,0.48911,1.08101,2.90382,1.94795,3.84225,1.02388
1.54,0.489358,1.08192,2.89893,1.94347,3.83664,1.02413
1.55,0.489537,1.08288,2.89403,1.93897,3.83099,1.02442
1.56,0.489802,1.08382,2.88914,1.93448,3.82533,1.02468
1.57,0.490057,1.08475,2.88424,1.93,3.81967,1.02491
1.58,0.490289,1.08577,2.87934,1.92554,3.81398,1.02521
1.59,0.490578,1.08677,2.87444,1.92108,3.80829,1.02548
1.6,0.490772,1.08776,2.86953,1.91662,3.80256,1.02573
1.61,0.490957,1.08879,2.86462,1.91215,3.79682,1.026
1.62,0.491113,1.08981,2.85971,1.9077,3.79112,1.02628
1.63,0.491277,1.09081,2.8548,1.90325,3.78541,1.02654
1.64,0.491432,1.09182,2.84989,1.8988,3.77968,1.0268
1.65,0.491564,1.09287,2.84498,1.89436,3.77397,1.02709
1.66,0.491599,1.09392,2.84006,1.88994,3.76824,1.02735
1.67,0.491603,1.09493,2.83515,1.8855,3.7625,1.02759
1.68,0.491671,1.09598,2.83023,1.88101,3.75677,1.02789
1.69,0.491792,1.09699,2.82532,1.87649,3.75101,1.02817
1.7,0.49192,1.09797,2.8204,1.87197,3.74527,1.02842
1.71,0.492011,1.09904,2.81548,1.86749,3.73948,1.0287
1.72,0.492115,1.10011,2.81056,1.86302,3.73371,1.02898
1.73,0.492243,1.10112,2.80564,1.85857,3.72801,1.02924
1.74,0.492285,1.10212,2.80072,1.8541,3.72233,1.02951
1.75,0.49235,1.10315,2.7958,1.84962,3.71664,1.0298
1.76,0.492398,1.10415,2.79088,1.84515,3.71095,1.03007
1.77,0.492524,1.10515,2.78595,1.84068,3.70524,1.03031
1.78,0.492622,1.1062,2.78103,1.8362,3.69953,1.03061
1.79,0.492651,1.10724,2.7761,1.83172,3.6938,1.03089
1.8,0.49271,1.10827,2.77118,1.82725,3.68805,1.03114
1.81,0.492749,1.10933,2.76625,1.82275,3.68231,1.03143
1.82,0.492783,1.11038,2.76133,1.81822,3.67652,1.03171
1.83,0.492764,1.11142,2.7564,1.81369,3.67072,1.03197
1.84,0.49281,1.11244,2.75147,1.80915,3.66495,1.03224
1.85,0.492844,1.11352,2.74655,1.80464,3.65918,1.03253
1.86,0.492922,1.11458,2.74162,1.80015,3.6534,1.03279
1.87,0.492953,1.11563,2.73669,1.79567,3.64762,1.03305
1.88,0.492922,1.11673,2.73176,1.79117,3.64183,1.03335
1.89,0.492928,1.11781,2.72684,1.78669,3.63604,1.03362
1.9,0.492963,1.11888,2.72191,1.78222,3.63026,1.03387
1.91,0.492569,1.12003,2.71698,1.77776,3.62445,1.03417
1.92,0.492248,1.12116,2.71206,1.77331,3.61863,1.03445
1.93,0.492193,1.1223,2.70714,1.76888,3.61279,1.03471
1.94,0.492113,1.12348,2.70222,1.76448,3.60698,1.035
1.95,0.492076,1.1246,2.6973,1.76006,3.60123,1.03529
1.96,0.491992,1.12568,2.69238,1.75559,3.59547,1.03556
1.97,0.491924,1.12675,2.68746,1.7511,3.58972,1.03583
1.98,0.491853,1.12783,2.68255,1.74659,3.58398,1.03613
1.99,0.491782,1.12894,2.67763,1.74214,3.57821,1.0364
2,0.491791,1.13004,2.67271,1.73771,3.57246,1.03666
2.01,0.491728,1.13121,2.6678,1.7333,3.56669,1.03697
2.02,0.491698,1.13235,2.66288,1.72886,3.5609,1.03725
2.03,0.49157,1.13346,2.65797,1.72443,3.55511,1.03751
2.04,0.491499,1.13466,2.65305,1.72,3.54929,1.03781
2.05,0.491396,1.13583,2.64814,1.71557,3.54349,1.0381
2.06,0.4913,1.13694,2.64323,1.71112,3.53771,1.03837
2.07,0.491164,1.1381,2.63832,1.70669,3.53192,1.03865
2.08,0.491048,1.13928,2.63341,1.70226,3.52614,1.03895
2.09,0.490919,1.14041,2.6285,1.69781,3.52036,1.03923
2.1,0.490807,1.14153,2.62359,1.69333,3.51456,1.0395
2.11,0.490665,1.14268,2.61868,1.68884,3.50878,1.0398
2.12,0.490574,1.14382,2.61378,1.68436,3.50299,1.04009
2.13,0.490236,1.14494,2.60888,1.6799,3.4972,1.04035
2.14,0.490232,1.14613,2.60398,1.67547,3.49142,1.04066
2.15,0.49006,1.14733,2.59908,1.67104,3.48561,1.04095
2.16,0.48989,1.14846,2.59418,1.66661,3.47985,1.04122
2.17,0.489707,1.1496,2.58928,1.66217,3.47412,1.04151
2.18,0.489544,1.15077,2.58439,1.65776,3.46839,1.04181
2.19,0.489428,1.15192,2.57949,1.65336,3.46267,1.04209
2.2,0.489229,1.15306,2.5746,1.64895,3.45695,1.04236
2.21,0.48906,1.15426,2.56971,1.64456,3.45121,1.04267
2.22,0.488892,1.15545,2.56482,1.64019,3.44548,1.04296
2.23,0.488613,1.15662,2.55993,1.63581,3.43973,1.04322
2.24,0.488349,1.15782,2.55505,1.63139,3.43398,1.04354
2.25,0.488199,1.159,2.55017,1.62694,3.4282,1.04383
2.26,0.488159,1.16016,2.54529,1.62247,3.42241,1.04411
2.27,0.488065,1.16136,2.54041,1.61805,3.41664,1.0444
2.28,0.487911,1.16259,2.53553,1.61366,3.41088,1.04471
2.29,0.487806,1.1638,2.53065,1.60929,3.40511,1.04499
2.3,0.487651,1.16499,2.52578,1.6049,3.39935,1.04526
2.31,0.487517,1.16624,2.5209,1.6005,3.39358,1.04558
2.32,0.487357,1.16747,2.51603,1.59611,3.38781,1.04588
2.33,0.487178,1.16868,2.51116,1.59173,3.38204,1.04615
2.34,0.487004,1.16993,2.50629,1.58733,3.37627,1.04646
2.35,0.486875,1.17117,2.50142,1.58294,3.3705,1.04677
2.36,0.486654,1.1724,2.49655,1.57856,3.36472,1.04704
2.37,0.486485,1.17365,2.49169,1.57418,3.35892,1.04734
2.38,0.486334,1.17487,2.48683,1.56975,3.35318,1.04765
2.39,0.486205,1.17605,2.48196,1.56532,3.34745,1.04793
2.4,0.486047,1.17721,2.4771,1.56089,3.34171,1.0482
2.41,0.485932,1.17843,2.47225,1.55647,3.33599,1.04852
2.42,0.485744,1.17965,2.46739,1.55208,3.33026,1.04881
2.43,0.485522,1.18085,2.46253,1.54771,3.32453,1.04908
2.44,0.485304,1.18211,2.45768,1.54333,3.3188,1.0494
2.45,0.4851,1.18336,2.45283,1.53895,3.31306,1.0497
2.46,0.484895,1.18459,2.44798,1.53459,3.30732,1.04998
2.47,0.484663,1.18589,2.44313,1.53026,3.30156,1.05028
2.48,0.484442,1.1872,2.43829,1.52591,3.29579,1.05059
2.49,0.484249,1.18847,2.43345,1.52159,3.29005,1.05088
2.5,0.483989,1.18976,2.42861,1.51729,3.28431,1.05117
2.51,0.48367,1.19111,2.42377,1.51301,3.27857,1.05149
2.52,0.483408,1.19241,2.41894,1.5087,3.27284,1.05179
2.53,0.483141,1.19366,2.4141,1.50435,3.2671,1.05206
2.54,0.48285,1.19496,2.40928,1.49998,3.26137,1.05239
2.55,0.482474,1.19624,2.40445,1.49563,3.25564,1.0527
2.56,0.482159,1.19754,2.39963,1.49132,3.2499,1.05298
2.57,0.481832,1.19888,2.39481,1.48704,3.24418,1.0533
2.58,0.481478,1.20025,2.38999,1.48276,3.23843,1.05362
2.59,0.481134,1.20157,2.38518,1.47846,3.23269,1.05391
2.6,0.480845,1.20286,2.38037,1.47417,3.22701,1.05421
2.61,0.480575,1.20419,2.37557,1.46989,3.22134,1.05454
2.62,0.480299,1.20549,2.37076,1.46562,3.21568,1.05484
2.63,0.480019,1.20675,2.36596,1.46132,3.21002,1.05512
2.64,0.479772,1.2081,2.36116,1.45704,3.20436,1.05546
2.65,0.479522,1.20942,2.35637,1.45278,3.19869,1.05578
2.66,0.479215,1.21071,2.35158,1.44849,3.19303,1.05607
2.67,0.478864,1.21202,2.34679,1.44418,3.18736,1.05639
2.68,0.478596,1.21334,2.342,1.43986,3.18169,1.05671
2.69,0.478262,1.21463,2.33722,1.43555,3.17601,1.05701
2.7,0.477946,1.21595,2.33244,1.43126,3.17033,1.05731
2.71,0.477386,1.21732,2.32766,1.42699,3.16465,1.05765
2.72,0.477033,1.21867,2.32289,1.42273,3.15898,1.05796
2.73,0.476672,1.22001,2.31812,1.41848,3.15331,1.05825
2.74,0.476283,1.22139,2.31336,1.41422,3.14764,1.05859
2.75,0.475917,1.22277,2.3086,1.40999,3.14197,1.05891
2.76,0.4755,1.22414,2.30384,1.40577,3.13631,1.05921
2.77,0.475089,1.22552,2.29909,1.40155,3.13065,1.05953
2.78,0.474677,1.22695,2.29434,1.39734,3.12499,1.05987
2.79,0.474268,1.22835,2.2896,1.39315,3.11934,1.06018
2.8,0.473814,1.22975,2.28486,1.38898,3.11367,1.06047
2.81,0.47336,1.23121,2.28012,1.38479,3.10801,1.06082
2.82,0.4729,1.23259,2.27539,1.38056,3.10238,1.06115
2.83,0.472093,1.23392,2.27067,1.37631,3.09677,1.06145
2.84,0.471719,1.23528,2.26595,1.37207,3.09116,1.06178
2.85,0.471307,1.23668,2.26124,1.36787,3.08556,1.06212
2.86,0.470946,1.23808,2.25653,1.36369,3.07996,1.06244
2.87,0.470548,1.23946,2.25182,1.35953,3.07436,1.06273
2.88,0.470118,1.2409,2.24712,1.35536,3.06877,1.06308
2.89,0.469765,1.24231,2.24242,1.35119,3.06318,1.06341
2.9,0.469378,1.2437,2.23773,1.34703,3.05758,1.06371
2.91,0.468965,1.24515,2.23304,1.34288,3.05197,1.06404
2.92,0.468531,1.2466,2.22835,1.33872,3.04637,1.06437
2.93,0.468083,1.24801,2.22367,1.33457,3.04079,1.06468
2.94,0.467675,1.24942,2.21899,1.33043,3.03521,1.06499
2.95,0.467243,1.25088,2.21432,1.3263,3.02964,1.06534
2.96,0.466766,1.25229,2.20965,1.32214,3.02408,1.06566
2.97,0.466341,1.25366,2.20498,1.31796,3.01851,1.06596
2.98,0.465901,1.25509,2.20032,1.31378,3.01295,1.06631
2.99,0.46549,1.25651,2.19567,1.30961,3.0074,1.06665
3,0.465018,1.25792,2.19102,1.30547,3.00185,1.06695
3.01,0.464262,1.25937,2.18637,1.30135,2.9963,1.06728
3.02,0.463922,1.26084,2.18173,1.29725,2.99077,1.06763
3.03,0.463471,1.26231,2.17709,1.29315,2.98522,1.06796
3.04,0.462989,1.26372,2.17246,1.28904,2.97971,1.06826
3.05,0.462481,1.2652,2.16784,1.28497,2.97422,1.06862
3.06,0.461921,1.26666,2.16322,1.28091,2.96875,1.06896
3.07,0.461371,1.26809,2.1586,1.27686,2.96329,1.06928
3.08,0.460866,1.26955,2.15399,1.27282,2.95784,1.06962
3.09,0.460321,1.27106,2.14938,1.26881,2.95239,1.06997
3.1,0.459768,1.27255,2.14479,1.26483,2.94695,1.0703
3.11,0.459198,1.27402,2.14019,1.26083,2.94151,1.0706
3.12,0.458633,1.27553,2.1356,1.25681,2.93606,1.07097
3.13,0.458065,1.27699,2.13102,1.25276,2.93063,1.07132
3.14,0.457474,1.27842,2.12644,1.24868,2.92518,1.07163
3.15,0.456881,1.27991,2.12187,1.24466,2.91973,1.07198
3.16,0.456375,1.28145,2.11731,1.24067,2.9143,1.07234
3.17,0.455878,1.28297,2.11275,1.23671,2.90887,1.07267
3.18,0.455348,1.28447,2.10819,1.23275,2.90345,1.07298
3.19,0.454782,1.28603,2.10364,1.22878,2.89803,1.07335
3.2,0.454204,1.28757,2.0991,1.22481,2.89262,1.07371
3.21,0.453712,1.28908,2.09456,1.22086,2.88721,1.07403
3.22,0.453203,1.29062,2.09003,1.21692,2.88181,1.07437
3.23,0.452648,1.29218,2.0855,1.21296,2.87641,1.07474
3.24,0.452084,1.29372,2.08097,1.20901,2.87101,1.07508
3.25,0.45154,1.29525,2.07646,1.20508,2.86561,1.0754
3.26,0.451003,1.29686,2.07195,1.20115,2.8602,1.07577
3.27,0.450434,1.29841,2.06744,1.1972,2.85481,1.07613
3.28,0.449895,1.29991,2.06294,1.19323,2.84945,1.07647
3.29,0.449388,1.3014,2.05844,1.18926,2.8441,1.0768
3.3,0.44887,1.30294,2.05395,1.1853,2.83876,1.07718
3.31,0.448331,1.30447,2.04947,1.18136,2.83343,1.07754
3.32,0.447782,1.30599,2.04499,1.17745,2.82809,1.07787
3.33,0.447301,1.30757,2.04051,1.17355,2.82277,1.07823
3.34,0.446788,1.30915,2.03604,1.16967,2.81745,1.0786
3.35,0.446263,1.3107,2.03158,1.16577,2.81212,1.07894
3.36,0.445743,1.31224,2.02712,1.16189,2.8068,1.07926
3.37,0.445205,1.31388,2.02267,1.15804,2.80148,1.07964
3.38,0.444624,1.3155,2.01822,1.1542,2.79615,1.08
3.39,0.44398,1.31708,2.01378,1.15035,2.79085,1.08033
3.4,0.443422,1.3187,2.00934,1.14653,2.78555,1.08068
3.41,0.442847,1.32036,2.00491,1.14273,2.78025,1.08106
3.42,0.442008,1.322,2.00049,1.13895,2.77496,1.08141
3.43,0.441391,1.32359,1.99607,1.13514,2.76968,1.08174
3.44,0.44081,1.32524,1.99166,1.1313,2.76441,1.08212
3.45,0.440162,1.32684,1.98726,1.12745,2.75914,1.08249
3.46,0.439556,1.3284,1.98286,1.12358,2.75387,1.08284
3.47,0.438943,1.33001,1.97847,1.11976,2.74861,1.08319
3.48,0.438305,1.33169,1.97409,1.11597,2.74335,1.08358
3.49,0.437696,1.33337,1.96971,1.1122,2.73808,1.08395
3.5,0.437054,1.33502,1.96534,1.10845,2.73283,1.08429
3.51,0.436442,1.33669,1.96097,1.10469,2.7276,1.08467
3.52,0.435799,1.33835,1.95661,1.10092,2.7224,1.08505
3.53,0.435175,1.33999,1.95225,1.09718,2.71721,1.08541
3.54,0.434542,1.34161,1.94791,1.09344,2.71202,1.08575
3.55,0.433918,1.3433,1.94357,1.08971,2.70685,1.08616
3.56,0.433345,1.34497,1.93923,1.08597,2.70168,1.08654
3.57,0.432755,1.34662,1.9349,1.08225,2.69651,1.0869
3.58,0.432138,1.34828,1.93058,1.07854,2.69135,1.08726
3.59,0.431514,1.35,1.92626,1.07483,2.68619,1.08766
3.6,0.430904,1.35166,1.92195,1.07109,2.68103,1.08804
3.61,0.430305,1.35329,1.91764,1.06735,2.67588,1.0884
3.62,0.428694,1.35497,1.91335,1.06361,2.67072,1.08879
3.63,0.42814,1.35667,1.90906,1.0599,2.66558,1.08919
3.64,0.427386,1.35836,1.90479,1.05621,2.66046,1.08957
3.65,0.426608,1.36003,1.90052,1.05254,2.65533,1.08992
3.66,0.42588,1.36178,1.89626,1.04889,2.65022,1.09033
3.67,0.425129,1.36354,1.892,1.04527,2.64511,1.09073
3.68,0.424389,1.36526,1.88776,1.04163,2.64001,1.0911
3.69,0.423687,1.36697,1.88352,1.03801,2.63491,1.09146
3.7,0.422962,1.36877,1.87928,1.03441,2.62982,1.09188
3.71,0.422214,1.37056,1.87506,1.03083,2.62474,1.09228
3.72,0.421506,1.37233,1.87084,1.02726,2.61967,1.09265
3.73,0.420771,1.3741,1.86663,1.0237,2.6146,1.09302
3.74,0.420036,1.37596,1.86243,1.02017,2.60952,1.09344
