time,velocity,ratio,centerX,Xmax,Xmin,Ymax
0,0,1,1.75,0.75,2.75,1
0.01,0.0180083,1.00001,1.74991,0.74992,2.7499,1
0.02,0.0349514,1.00004,1.74965,0.749684,2.74963,1.00001
0.03,0.05092,1.00008,1.74922,0.749301,2.74918,1.00002
0.04,0.0659643,1.00013,1.74864,0.748774,2.74858,1.00003
0.05,0.0801343,1.0002,1.74791,0.748115,2.74782,1.00005
0.06,0.0935975,1.00028,1.74704,0.747326,2.74691,1.00007
0.07,0.106347,1.00037,1.74604,0.746412,2.74587,1.0001
0.08,0.118446,1.00046,1.74492,0.745375,2.7447,1.00012
0.09,0.129935,1.00055,1.74368,0.744223,2.74341,1.00015
0.1,0.140887,1.00066,1.74233,0.742962,2.742,1.00017
0.11,0.151334,1.00077,1.74087,0.741596,2.74048,1.00022
0.12,0.161297,1.00089,1.73931,0.740131,2.73886,1.00026
0.13,0.170814,1.00101,1.73765,0.738568,2.73714,1.0003
0.14,0.179868,1.00112,1.73589,0.736902,2.73534,1.00034
0.15,0.188494,1.00123,1.73405,0.735139,2.73345,1.00038
0.16,0.196727,1.00133,1.73213,0.733289,2.73146,1.00042
0.17,0.204338,1.00144,1.73013,0.731375,2.72939,1.00045
0.18,0.211715,1.00155,1.72805,0.729389,2.72723,1.00047
0.19,0.218807,1.00167,1.7259,0.727329,2.725,1.0005
0.2,0.225714,1.0018,1.72368,0.725202,2.72269,1.00055
0.21,0.232248,1.00193,1.72139,0.723008,2.72033,1.00058
0.22,0.238458,1.00203,1.71903,0.720751,2.71791,1.00061
0.23,0.24441,1.00213,1.71662,0.718424,2.71545,1.00064
0.24,0.250228,1.00221,1.71415,0.716032,2.71293,1.00066
0.25,0.255594,1.00229,1.71162,0.713584,2.71035,1.00068
0.26,0.260708,1.0024,1.70904,0.711083,2.70772,1.00071
0.27,0.265823,1.0025,1.70641,0.708529,2.70503,1.00075
0.28,0.270631,1.0026,1.70373,0.705926,2.7023,1.00078
0.29,0.275243,1.00267,1.701,0.703272,2.69954,1.0008
0.3,0.279712,1.00273,1.69823,0.700563,2.69674,1.00082
0.31,0.283904,1.00279,1.69541,0.69781,2.69389,1.00083
0.32,0.288006,1.00289,1.69255,0.695012,2.69098,1.00087
0.33,0.292027,1.00297,1.68965,0.692168,2.68804,1.0009
0.34,0.29579,1.00304,1.68672,0.689284,2.68505,1.00092
0.35,0.299401,1.00309,1.68374,0.686366,2.68206,1.00093
0.36,0.302812,1.00313,1.68073,0.683405,2.67903,1.00093
0.37,0.306271,1.0032,1.67769,0.680413,2.67596,1.00096
0.38,0.309463,1.00327,1.67461,0.677385,2.67285,1.001
0.39,0.312574,1.00333,1.6715,0.674333,2.66971,1.00102
0.4,0.315477,1.00339,1.66836,0.671252,2.66654,1.00103
0.41,0.318306,1.00342,1.66519,0.668125,2.66335,1.00103
0.42,0.321145,1.0035,1.662,0.664972,2.66012,1.00106
0.43,0.323634,1.00357,1.65878,0.661798,2.65686,1.00109
0.44,0.326056,1.00364,1.65553,0.658608,2.65356,1.00111
0.45,0.328517,1.0037,1.65226,0.655399,2.65026,1.00112
0.46,0.330913,1.00374,1.64896,0.652162,2.64694,1.00112
0.47,0.333165,1.00383,1.64564,0.648912,2.64359,1.00116
0.48,0.335366,1.00392,1.6423,0.645647,2.64021,1.00119
0.49,0.337545,1.004,1.63894,0.642367,2.6368,1.0012
0.5,0.339337,1.00406,1.63555,0.639066,2.63339,1.00121
0.51,0.341282,1.00412,1.63215,0.63573,2.62996,1.00122
0.52,0.34311,1.0042,1.62873,0.63237,2.62651,1.00126
0.53,0.344753,1.00428,1.62529,0.628981,2.62302,1.00128
0.54,0.34645,1.00433,1.62184,0.625573,2.61954,1.0013
0.55,0.348028,1.00437,1.61837,0.622167,2.61606,1.0013
0.56,0.349435,1.00444,1.61488,0.618743,2.61256,1.00134
0.57,0.3509,1.00451,1.61138,0.615294,2.60904,1.00137
0.58,0.352346,1.00458,1.60786,0.61184,2.60549,1.00139
0.59,0.353552,1.00464,1.60434,0.608371,2.60192,1.0014
0.6,0.354871,1.0047,1.60079,0.60487,2.59834,1.00142
0.61,0.356106,1.00478,1.59724,0.601361,2.59474,1.00146
0.62,0.357194,1.00486,1.59368,0.597848,2.59112,1.00148
0.63,0.358289,1.00493,1.5901,0.594334,2.58749,1.00149
0.64,0.35921,1.00498,1.58651,0.590808,2.58387,1.0015
0.65,0.36023,1.00507,1.58292,0.587275,2.58024,1.00154
0.66,0.36084,1.00516,1.57931,0.583737,2.57658,1.00156
0.67,0.36185,1.00523,1.5757,0.580199,2.57292,1.00157
0.68,0.362639,1.00529,1.57208,0.576653,2.56927,1.00158
0.69,0.363563,1.00537,1.56845,0.573083,2.56561,1.00161
0.7,0.364315,1.00545,1.56481,0.569502,2.56193,1.00164
0.71,0.365161,1.00552,1.56116,0.565904,2.55824,1.00166
0.72,0.365608,1.00556,1.55751,0.562299,2.55456,1.00167
0.73,0.366347,1.00562,1.55385,0.558699,2.55089,1.00169
0.74,0.366696,1.0057,1.55019,0.555096,2.5472,1.00173
0.75,0.367273,1.00577,1.54652,0.551483,2.5435,1.00175
0.76,0.367804,1.00583,1.54284,0.547876,2.53979,1.00176
0.77,0.368073,1.00588,1.53916,0.544255,2.53608,1.00177
0.78,0.36852,1.00596,1.53548,0.540622,2.53237,1.00181
0.79,0.368953,1.00603,1.5318,0.536991,2.52864,1.00183
0.8,0.369137,1.00609,1.52811,0.533364,2.52491,1.00184
0.81,0.369405,1.00614,1.52441,0.52974,2.52119,1.00184
0.82,0.369542,1.00623,1.52072,0.526112,2.51747,1.00188
0.83,0.369799,1.00631,1.51702,0.522491,2.51374,1.00191
0.84,0.369973,1.00639,1.51333,0.518879,2.50999,1.00192
0.85,0.369888,1.00645,1.50963,0.515275,2.50627,1.00192
0.86,0.369995,1.00654,1.50593,0.511656,2.50254,1.00195
0.87,0.370034,1.00663,1.50223,0.508026,2.4988,1.00198
0.88,0.369997,1.0067,1.49853,0.504382,2.49505,1.002
0.89,0.369983,1.00674,1.49483,0.500744,2.49134,1.00201
0.9,0.369827,1.00681,1.49113,0.497126,2.48764,1.00204
0.91,0.369794,1.00689,1.48744,0.493498,2.48393,1.00207
0.92,0.369656,1.00696,1.48374,0.489858,2.4802,1.00209
0.93,0.369435,1.00702,1.48005,0.486236,2.47647,1.0021
0.94,0.369289,1.00709,1.47635,0.482597,2.47274,1.00212
0.95,0.368992,1.00718,1.47266,0.478959,2.469,1.00216
0.96,0.368881,1.00726,1.46897,0.47533,2.46526,1.00219
0.97,0.368446,1.00732,1.46529,0.47171,2.46152,1.00219
0.98,0.368235,1.00739,1.4616,0.468102,2.45781,1.0022
0.99,0.367991,1.00748,1.45792,0.464495,2.45409,1.00224
1,0.367577,1.00757,1.45425,0.460894,2.45037,1.00226
1.01,0.367276,1.00764,1.45057,0.457304,2.44664,1.00227
1.02,0.366663,1.0077,1.4469,0.453723,2.44294,1.00227
1.03,0.36605,1.00781,1.44324,0.45014,2.43925,1.00232
1.04,0.365744,1.0079,1.43958,0.446551,2.43554,1.00235
1.05,0.365291,1.00797,1.43593,0.442956,2.43184,1.00236
1.06,0.364886,1.00801,1.43228,0.439358,2.42817,1.00237
1.07,0.364323,1.00809,1.42863,0.435784,2.42451,1.0024
1.08,0.363688,1.00818,1.42499,0.432223,2.42084,1.00244
1.09,0.363145,1.00826,1.42136,0.428663,2.41716,1.00246
1.1,0.362634,1.00833,1.41773,0.425118,2.4135,1.00247
1.11,0.362045,1.00842,1.41411,0.421588,2.40985,1.0025
1.12,0.361224,1.00852,1.41049,0.418048,2.40619,1.00254
1.13,0.360768,1.00861,1.40688,0.414508,2.40252,1.00257
1.14,0.359985,1.00869,1.40328,0.410982,2.39888,1.00258
1.15,0.359209,1.00876,1.39968,0.407471,2.39525,1.00259
1.16,0.358452,1.00886,1.3961,0.403973,2.39162,1.00263
1.17,0.357877,1.00896,1.39252,0.400481,2.38799,1.00266
1.18,0.357046,1.00905,1.38894,0.397005,2.38437,1.00267
1.19,0.35611,1.00912,1.38538,0.393545,2.38077,1.00268
1.2,0.355392,1.00924,1.38182,0.390102,2.37717,1.00271
1.21,0.354517,1.00934,1.37827,0.386653,2.37358,1.00275
1.22,0.353607,1.00942,1.37473,0.383185,2.37,1.00277
1.23,0.352693,1.00946,1.3712,0.379702,2.36645,1.00278
1.24,0.351843,1.00951,1.36768,0.376216,2.36292,1.0028
1.25,0.351042,1.0096,1.36416,0.372781,2.35938,1.00284
1.26,0.350158,1.00969,1.36066,0.369359,2.35584,1.00286
1.27,0.349135,1.00976,1.35716,0.365929,2.3523,1.00288
1.28,0.348232,1.00982,1.35368,0.362519,2.34878,1.00288
1.29,0.347385,1.00993,1.3502,0.359127,2.34527,1.00293
1.3,0.346459,1.01002,1.34673,0.355727,2.34175,1.00296
1.31,0.345385,1.0101,1.34327,0.352335,2.33824,1.00297
1.32,0.344367,1.01016,1.33982,0.348961,2.33475,1.00298
1.33,0.343346,1.01024,1.33639,0.34561,2.33128,1.003
1.34,0.342134,1.01034,1.33296,0.342284,2.32782,1.00304
1.35,0.341191,1.01043,1.32954,0.338941,2.32435,1.00306
1.36,0.340215,1.01049,1.32614,0.335595,2.3209,1.00307
1.37,0.338951,1.01054,1.32274,0.33226,2.31748,1.00307
1.38,0.33788,1.01064,1.31936,0.328951,2.31406,1.00311
1.39,0.33693,1.01073,1.31599,0.325655,2.31065,1.00314
1.4,0.335847,1.0108,1.31262,0.322354,2.30724,1.00316
1.41,0.334539,1.01085,1.30927,0.319059,2.30387,1.00317
1.42,0.333418,1.0109,1.30593,0.315773,2.30052,1.00319
1.43,0.332285,1.01098,1.30261,0.312512,2.29716,1.00322
1.44,0.330899,1.01107,1.29929,0.309282,2.29381,1.00325
1.45,0.329738,1.01115,1.29599,0.306067,2.29047,1.00326
1.46,0.328493,1.01121,1.2927,0.302855,2.28715,1.00327
1.47,0.32704,1.01131,1.28942,0.299678,2.28384,1.0033
1.48,0.325908,1.01142,1.28616,0.296518,2.28053,1.00333
1.49,0.324623,1.01151,1.2829,0.293343,2.27723,1.00336
1.5,0.323377,1.01158,1.27966,0.290182,2.27396,1.00337
1.51,0.321811,1.01164,1.27644,0.287042,2.27071,1.00338
1.52,0.320547,1.01175,1.27323,0.28393,2.26746,1.00342
1.53,0.319304,1.01186,1.27003,0.28084,2.26422,1.00345
1.54,0.318026,1.01196,1.26684,0.277743,2.26098,1.00348
1.55,0.316748,1.01204,1.26367,0.27466,2.25777,1.00349
1.56,0.315302,1.01211,1.26051,0.271599,2.25458,1.0035
1.57,0.313692,1.01223,1.25737,0.268566,2.2514,1.00354
1.58,0.31228,1.01235,1.25424,0.265554,2.24821,1.00357
1.59,0.310908,1.01245,1.25112,0.262538,2.24505,1.0036
1.6,0.309516,1.01252,1.24802,0.259527,2.24193,1.00361
1.61,0.308022,1.01258,1.24493,0.256522,2.23882,1.00362
1.62,0.306527,1.01268,1.24186,0.253543,2.23572,1.00366
1.63,0.304757,1.01279,1.23881,0.250586,2.23263,1.00369
1.64,0.303083,1.01289,1.23577,0.247651,2.22954,1.00372
1.65,0.301616,1.01298,1.23274,0.244732,2.22648,1.00374
1.66,0.300067,1.01306,1.22974,0.241824,2.22343,1.00375
1.67,0.298495,1.01319,1.22674,0.238947,2.22039,1.00379
1.68,0.296963,1.01332,1.22377,0.236097,2.21736,1.00383
1.69,0.295414,1.01343,1.22081,0.233246,2.21434,1.00385
1.7,0.293819,1.01352,1.21786,0.230395,2.21135,1.00387
1.71,0.292188,1.0136,1.21493,0.227566,2.20839,1.00388
1.72,0.290463,1.01371,1.21202,0.224764,2.20543,1.00391
1.73,0.288841,1.01384,1.20912,0.221993,2.20249,1.00395
1.74,0.287144,1.01396,1.20624,0.219243,2.19955,1.00398
1.75,0.285511,1.01407,1.20338,0.216501,2.19664,1.004
1.76,0.28382,1.01416,1.20054,0.213773,2.19377,1.00401
1.77,0.281952,1.01426,1.19771,0.211072,2.1909,1.00403
1.78,0.280222,1.0144,1.1949,0.208405,2.18804,1.00407
1.79,0.278504,1.01454,1.19211,0.205758,2.1852,1.00411
1.8,0.276713,1.01466,1.18933,0.203122,2.18238,1.00413
1.81,0.274988,1.01476,1.18657,0.200495,2.17959,1.00415
1.82,0.273139,1.01485,1.18383,0.197878,2.17682,1.00416
1.83,0.271279,1.01496,1.18111,0.19527,2.17406,1.0042
1.84,0.26946,1.01509,1.17841,0.192684,2.17131,1.00424
1.85,0.267575,1.0152,1.17572,0.190108,2.16857,1.00427
1.86,0.265767,1.0153,1.17306,0.187547,2.16586,1.0043
1.87,0.263925,1.01541,1.17041,0.185038,2.16318,1.00432
1.88,0.261956,1.01552,1.16778,0.182556,2.16051,1.00433
1.89,0.26003,1.01567,1.16517,0.180088,2.15785,1.00437
1.9,0.258071,1.01581,1.16258,0.177643,2.1552,1.00441
1.91,0.25616,1.01594,1.16001,0.175216,2.15258,1.00444
1.92,0.254202,1.01606,1.15746,0.172798,2.14999,1.00447
1.93,0.252339,1.01616,1.15493,0.170405,2.14742,1.00449
1.94,0.250372,1.01626,1.15241,0.168022,2.14486,1.0045
1.95,0.248267,1.0164,1.14992,0.16565,2.14232,1.00454
1.96,0.246302,1.01652,1.14745,0.163297,2.13979,1.00457
1.97,0.244296,1.01665,1.145,0.160971,2.13728,1.00461
1.98,0.2423,1.01677,1.14256,0.158664,2.1348,1.00464
1.99,0.240373,1.01688,1.14015,0.156393,2.13236,1.00466
2,0.238295,1.01699,1.13776,0.154144,2.12992,1.00467
2.01,0.23617,1.01712,1.13539,0.151911,2.12751,1.00471
2.02,0.234121,1.01725,1.13304,0.14971,2.12511,1.00474
2.03,0.232067,1.01739,1.13071,0.147523,2.12272,1.00478
2.04,0.230073,1.01751,1.1284,0.145353,2.12037,1.0048
2.05,0.227996,1.01762,1.12611,0.143205,2.11806,1.00483
2.06,0.225951,1.01774,1.12384,0.141096,2.11575,1.00484
2.07,0.223919,1.01785,1.12159,0.139008,2.11347,1.00485
2.08,0.221756,1.01799,1.11936,0.136924,2.11119,1.00489
2.09,0.21971,1.01812,1.11715,0.134857,2.10894,1.00492
2.1,0.217587,1.01823,1.11497,0.132794,2.10671,1.00495
2.11,0.215553,1.01834,1.1128,0.130746,2.1045,1.00498
2.12,0.213385,1.01844,1.11066,0.12872,2.10233,1.005
2.13,0.211371,1.01855,1.10854,0.126733,2.10017,1.00502
2.14,0.209246,1.01866,1.10643,0.124774,2.09802,1.00503
2.15,0.207138,1.0188,1.10435,0.122849,2.09589,1.00507
2.16,0.204666,1.01895,1.1023,0.12096,2.09378,1.0051
2.17,0.202608,1.01908,1.10026,0.119075,2.0917,1.00513
2.18,0.200496,1.0192,1.09824,0.117192,2.08964,1.00516
2.19,0.198437,1.01931,1.09625,0.115344,2.08761,1.00518
2.2,0.196348,1.01942,1.09428,0.113517,2.08561,1.0052
2.21,0.194218,1.01954,1.09232,0.111724,2.08361,1.00521
2.22,0.19215,1.01966,1.09039,0.109952,2.08164,1.00522
2.23,0.190052,1.0198,1.08848,0.108192,2.07968,1.00526
2.24,0.18789,1.01993,1.08659,0.106457,2.07775,1.00529
2.25,0.185849,1.02006,1.08473,0.104743,2.07584,1.00531
2.26,0.183826,1.02017,1.08288,0.103042,2.07396,1.00534
2.27,0.18178,1.02028,1.08105,0.101361,2.07211,1.00536
2.28,0.179624,1.02039,1.07924,0.0997043,2.07028,1.00538
2.29,0.177518,1.02051,1.07746,0.0980764,2.06846,1.00539
2.3,0.175436,1.02062,1.0757,0.0964739,2.06666,1.00541
2.31,0.173353,1.02076,1.07395,0.0948881,2.06487,1.00544
2.32,0.171261,1.0209,1.07223,0.0933264,2.0631,1.00547
2.33,0.16922,1.02103,1.07053,0.0917782,2.06136,1.0055
2.34,0.16722,1.02115,1.06885,0.0902494,2.05964,1.00552
2.35,0.165238,1.02127,1.06718,0.0887339,2.05795,1.00555
2.36,0.16325,1.02138,1.06554,0.087238,2.05628,1.00557
2.37,0.161242,1.02149,1.06392,0.0857673,2.05463,1.00559
2.38,0.159222,1.0216,1.06232,0.0843205,2.05299,1.0056
2.39,0.157184,1.02172,1.06074,0.0828967,2.05137,1.00561
2.4,0.155168,1.02184,1.05918,0.0814944,2.04976,1.00563
2.41,0.153151,1.02198,1.05764,0.0801125,2.04818,1.00566
2.42,0.151211,1.0221,1.05611,0.0787485,2.04662,1.00569
2.43,0.149235,1.02223,1.05461,0.0774119,2.04509,1.00571
2.44,0.147303,1.02235,1.05313,0.0760847,2.04358,1.00573
2.45,0.145397,1.02246,1.05167,0.074773,2.0421,1.00575
2.46,0.143551,1.02256,1.05022,0.0734786,2.04063,1.00577
2.47,0.14162,1.02267,1.0488,0.0722007,2.03918,1.00579
2.48,0.139753,1.02277,1.04739,0.0709435,2.03774,1.0058
2.49,0.13781,1.02288,1.046,0.0697022,2.03632,1.0058
2.5,0.135937,1.02298,1.04464,0.068474,2.03492,1.00581
2.51,0.134003,1.02309,1.04329,0.0672661,2.03354,1.00584
2.52,0.132175,1.02321,1.04196,0.0660736,2.03217,1.00586
2.53,0.130327,1.02331,1.04064,0.0648901,2.03083,1.00589
2.54,0.128507,1.02341,1.03935,0.0637265,2.02951,1.00591
2.55,0.126732,1.02351,1.03807,0.062583,2.02822,1.00593
2.56,0.124877,1.02362,1.03682,0.0614703,2.02695,1.00595
2.57,0.123149,1.02372,1.03558,0.0603781,2.02569,1.00596
2.58,0.121425,1.02383,1.03436,0.0593139,2.02444,1.00598
2.59,0.119705,1.02393,1.03315,0.0582527,2.02321,1.00599
2.6,0.117919,1.02402,1.03196,0.0571972,2.02199,1.00599
2.61,0.116206,1.02413,1.03079,0.056186,2.02079,1.006
2.62,0.114491,1.02422,1.02964,0.0551807,2.01961,1.00601
2.63,0.112791,1.02433,1.0285,0.0541916,2.01844,1.00602
2.64,0.111212,1.02444,1.02738,0.0532145,2.0173,1.00604
2.65,0.109592,1.02454,1.02628,0.0522521,2.01617,1.00606
2.66,0.107917,1.02464,1.02519,0.0512953,2.01506,1.00607
2.67,0.106297,1.02472,1.02412,0.0503463,2.01398,1.00609
2.68,0.104719,1.02481,1.02307,0.0494217,2.01291,1.0061
2.69,0.10321,1.02491,1.02203,0.0485302,2.01187,1.00612
2.7,0.101723,1.025,1.021,0.0476517,2.01083,1.00613
2.71,0.100248,1.0251,1.02,0.0467856,2.00981,1.00614
2.72,0.0987916,1.02519,1.019,0.0459443,2.0088,1.00615
2.73,0.0973416,1.02529,1.01802,0.045114,2.0078,1.00616
2.74,0.0958953,1.02538,1.01705,0.0442995,2.00681,1.00616
2.75,0.0944683,1.02547,1.0161,0.0434979,2.00584,1.00616
2.76,0.0930409,1.02556,1.01517,0.0427103,2.00489,1.00616
2.77,0.091624,1.02564,1.01424,0.0419358,2.00395,1.00616
2.78,0.0902055,1.02574,1.01333,0.0411772,2.00302,1.00617
2.79,0.0888499,1.02584,1.01244,0.0404296,2.00211,1.00619
2.8,0.0875188,1.02594,1.01156,0.0396967,2.00122,1.0062
2.81,0.0862231,1.02604,1.01069,0.0389799,2.00034,1.00621
2.82,0.0849706,1.02613,1.00983,0.0382758,1.99947,1.00622
2.83,0.083661,1.02622,1.00899,0.0375786,1.99862,1.00623
2.84,0.0823841,1.0263,1.00816,0.0368861,1.99779,1.00624
2.85,0.0811556,1.02638,1.00734,0.0362137,1.99698,1.00625
2.86,0.079972,1.02647,1.00654,0.0355644,1.99617,1.00625
2.87,0.0788242,1.02657,1.00575,0.0349246,1.99536,1.00626
2.88,0.0776735,1.02666,1.00496,0.0342981,1.99457,1.00626
2.89,0.0765339,1.02674,1.00419,0.0336809,1.99379,1.00627
2.9,0.0754267,1.02683,1.00343,0.0330726,1.99302,1.00627
2.91,0.0743106,1.02692,1.00269,0.0324786,1.99226,1.00627
2.92,0.0732217,1.027,1.00195,0.0318927,1.99151,1.00627
2.93,0.0721269,1.02709,1.00122,0.0313183,1.99078,1.00627
2.94,0.0710435,1.02719,1.00051,0.0307824,1.99006,1.00627
2.95,0.0699582,1.02729,0.999802,0.0302521,1.98934,1.00627
2.96,0.0688618,1.02738,0.999108,0.0297235,1.98864,1.00627
2.97,0.0677971,1.02748,0.998425,0.0292156,1.98795,1.00628
2.98,0.0667454,1.02759,0.997752,0.0287132,1.98727,1.00629
2.99,0.0657254,1.02768,0.99709,0.0281988,1.98659,1.0063
3,0.0647109,1.0278,0.996439,0.0277325,1.98593,1.00631
3.01,0.0637405,1.02789,0.995797,0.0272471,1.98527,1.00632
3.02,0.062789,1.02799,0.995164,0.0267832,1.98463,1.00633
3.03,0.0618536,1.02809,0.994541,0.026312,1.984,1.00634
3.04,0.0609157,1.02818,0.993928,0.0258564,1.98338,1.00634
3.05,0.0599632,1.02829,0.993324,0.0254373,1.98277,1.00635
3.06,0.0590382,1.02838,0.992729,0.0250045,1.98217,1.00636
3.07,0.0581265,1.02848,0.992144,0.0245826,1.98158,1.00637
3.08,0.0572623,1.02858,0.991567,0.0241718,1.981,1.00637
3.09,0.0564268,1.02869,0.990999,0.0237826,1.98042,1.00638
3.1,0.0555961,1.02878,0.990439,0.0233701,1.97984,1.00639
3.11,0.0547657,1.02887,0.989888,0.0229815,1.97928,1.00639
3.12,0.0539377,1.02897,0.989344,0.022614,1.97873,1.00639
3.13,0.0531407,1.02908,0.988809,0.0222778,1.97818,1.00639
3.14,0.0523495,1.02918,0.988282,0.0219162,1.97765,1.0064
3.15,0.0515762,1.02927,0.987763,0.0215693,1.97712,1.0064
3.16,0.0508143,1.02937,0.987251,0.0212314,1.9766,1.0064
3.17,0.0500555,1.02948,0.986747,0.0209144,1.97609,1.0064
3.18,0.0492941,1.02958,0.986251,0.0206004,1.97559,1.00641
3.19,0.0485397,1.02967,0.985762,0.0202734,1.97509,1.00641
3.2,0.047777,1.02976,0.985281,0.0199585,1.97461,1.00641
3.21,0.0470156,1.02985,0.984807,0.0196551,1.97413,1.00641
3.22,0.0462549,1.02995,0.984341,0.0193588,1.97366,1.00641
3.23,0.0455003,1.03005,0.983882,0.0190925,1.97319,1.00641
3.24,0.0447463,1.03016,0.983431,0.0188217,1.97273,1.00642
3.25,0.04401,1.03026,0.982988,0.0185431,1.97228,1.00642
3.26,0.0432833,1.03036,0.982552,0.01827,1.97183,1.00643
3.27,0.0425654,1.03046,0.982123,0.018005,1.97139,1.00644
3.28,0.0418595,1.03055,0.981701,0.017743,1.97096,1.00645
3.29,0.0411758,1.03065,0.981286,0.017494,1.97054,1.00645
3.3,0.0404973,1.03075,0.980878,0.0172558,1.97012,1.00646
3.31,0.0398412,1.03084,0.980476,0.0170155,1.96971,1.00646
3.32,0.0391988,1.03093,0.980081,0.0167715,1.96931,1.00647
3.33,0.0385742,1.03102,0.979693,0.0165312,1.96892,1.00647
3.34,0.0379267,1.0311,0.979311,0.016297,1.96853,1.00648
3.35,0.0373124,1.03119,0.978935,0.0160702,1.96815,1.00648
3.36,0.0367077,1.03127,0.978565,0.0158404,1.96778,1.00649
3.37,0.0361088,1.03135,0.978201,0.015625,1.96742,1.00649
3.38,0.0355165,1.03144,0.977843,0.0154247,1.96706,1.0065
3.39,0.0349326,1.03153,0.977491,0.0152287,1.9667,1.0065
3.4,0.034357,1.03162,0.977145,0.0150337,1.96635,1.00651
3.41,0.0338033,1.03171,0.976804,0.0148369,1.966,1.00651
3.42,0.0332747,1.03179,0.976469,0.0146443,1.96566,1.00652
3.43,0.0327627,1.03187,0.976139,0.0144584,1.96532,1.00652
3.44,0.0322569,1.03195,0.975814,0.0142723,1.96499,1.00652
3.45,0.0317544,1.03203,0.975494,0.0140908,1.96466,1.00652
3.46,0.0312618,1.0321,0.97518,0.0139128,1.96434,1.00652
3.47,0.0307666,1.03218,0.97487,0.0137375,1.96402,1.00652
3.48,0.0302805,1.03225,0.974565,0.0135654,1.96371,1.00652
3.49,0.0298099,1.03233,0.974264,0.0134042,1.96341,1.00652
3.5,0.0293513,1.0324,0.973969,0.0132438,1.96311,1.00652
3.51,0.0289034,1.03247,0.973678,0.013079,1.96282,1.00653
3.52,0.0284687,1.03254,0.973391,0.0129163,1.96254,1.00653
3.53,0.0280482,1.0326,0.973109,0.0127561,1.96226,1.00653
3.54,0.027636,1.03267,0.97283,0.0126027,1.96198,1.00653
3.55,0.0272335,1.03273,0.972556,0.0124516,1.96171,1.00653
3.56,0.0268416,1.03279,0.972286,0.0123032,1.96144,1.00653
3.57,0.0264631,1.03286,0.97202,0.0121535,1.96117,1.00653
3.58,0.0260833,1.03292,0.971757,0.0120024,1.96091,1.00653
3.59,0.0257094,1.03298,0.971498,0.0118638,1.96065,1.00653
3.6,0.025333,1.03305,0.971243,0.0117291,1.96039,1.00653
3.61,0.0249552,1.03311,0.970992,0.0115972,1.96014,1.00653
3.62,0.0245696,1.03317,0.970745,0.0114681,1.95989,1.00653
