time,velocity,ratio,centerX,Xmax,Xmin,Ymax
0,0,0.99998,1.1,0.1,2.1,0.99998
0.01,0.0148492,1.00003,1.09993,0.0999911,2.09992,0.999989
0.02,0.0285841,1.00017,1.09971,0.0999682,2.09966,1.00002
0.03,0.041347,1.0004,1.09937,0.0999345,2.09925,1.00006
0.04,0.0531981,1.00072,1.0989,0.0998915,2.0987,1.00012
0.05,0.0642981,1.00112,1.09831,0.0998397,2.098,1.0002
0.06,0.0746448,1.0016,1.09762,0.0997796,2.09717,1.00029
0.07,0.0843104,1.00216,1.09683,0.0997115,2.09622,1.00041
0.08,0.0933887,1.00278,1.09595,0.0996357,2.09515,1.00053
0.09,0.101897,1.00348,1.09497,0.0995523,2.09397,1.00068
0.1,0.109856,1.00424,1.09392,0.0994613,2.09268,1.00084
0.11,0.117312,1.00507,1.09278,0.0993627,2.09128,1.00101
0.12,0.124295,1.00597,1.09158,0.0992566,2.08978,1.0012
0.13,0.13084,1.00692,1.0903,0.099143,2.08819,1.00141
0.14,0.136955,1.00793,1.08897,0.0990217,2.08651,1.00163
0.15,0.142653,1.00903,1.08757,0.0988929,2.08474,1.00189
0.16,0.147981,1.01018,1.08612,0.0987564,2.08289,1.00216
0.17,0.152973,1.01137,1.08462,0.0986124,2.08098,1.00245
0.18,0.157632,1.01261,1.08307,0.0984608,2.07899,1.00276
0.19,0.161303,1.0139,1.08147,0.0983018,2.07694,1.00307
0.2,0.16541,1.01525,1.07984,0.0981354,2.07481,1.00341
0.21,0.169224,1.01663,1.07817,0.0979619,2.07261,1.00375
0.22,0.172736,1.01808,1.07646,0.0977813,2.07036,1.00412
0.23,0.175993,1.01958,1.07472,0.0975938,2.06805,1.00452
0.24,0.179012,1.02111,1.07295,0.0973992,2.06569,1.00493
0.25,0.18179,1.02268,1.07115,0.0971979,2.06329,1.00534
0.26,0.184373,1.02428,1.06932,0.0969899,2.06083,1.00576
0.27,0.186716,1.02593,1.06746,0.0967742,2.0583,1.0062
0.28,0.188883,1.02761,1.06559,0.0965505,2.05574,1.00664
0.29,0.190839,1.02934,1.06369,0.0963197,2.05316,1.00712
0.3,0.192624,1.03109,1.06177,0.0960839,2.05055,1.00761
0.31,0.194232,1.03285,1.05984,0.0958435,2.04793,1.00811
0.32,0.195677,1.03463,1.05789,0.0955982,2.04529,1.00861
0.33,0.196922,1.03645,1.05593,0.0953478,2.04259,1.00911
0.34,0.198081,1.03829,1.05396,0.0950925,2.03985,1.00961
0.35,0.199024,1.04019,1.05197,0.0948324,2.03707,1.01015
0.36,0.199845,1.04211,1.04998,0.0945677,2.03428,1.0107
0.37,0.200538,1.04404,1.04798,0.0942987,2.03147,1.01124
0.38,0.201078,1.04599,1.04597,0.0940256,2.02864,1.01179
0.39,0.201498,1.04796,1.04396,0.09375,2.02577,1.01234
0.4,0.201796,1.04994,1.04195,0.093467,2.02288,1.01288
0.41,0.202008,1.05195,1.03993,0.0931806,2.01998,1.01345
0.42,0.202119,1.05398,1.03791,0.0928896,2.01708,1.01403
0.43,0.202117,1.05601,1.03589,0.0925944,2.01418,1.01461
0.44,0.202032,1.05805,1.03387,0.0922955,2.01126,1.01518
0.45,0.201874,1.0601,1.03185,0.0919928,2.00832,1.01575
0.46,0.201611,1.06215,1.02984,0.0916866,2.00537,1.01631
0.47,0.201265,1.0642,1.02782,0.0913772,2.00244,1.01687
0.48,0.200958,1.06627,1.02581,0.0910649,1.99952,1.01746
0.49,0.200447,1.06838,1.02381,0.09075,1.99653,1.01805
0.5,0.199883,1.07048,1.02181,0.0904327,1.99355,1.01863
0.51,0.199239,1.07255,1.01981,0.0901134,1.99063,1.0192
0.52,0.198493,1.0746,1.01782,0.0897917,1.98774,1.01976
0.53,0.197782,1.07662,1.01584,0.0894679,1.98489,1.02032
0.54,0.196997,1.07864,1.01387,0.0891421,1.98206,1.02089
0.55,0.1961,1.0807,1.01191,0.0888146,1.97919,1.02147
0.56,0.195238,1.08277,1.00995,0.0884848,1.97632,1.02204
0.57,0.194249,1.08483,1.00801,0.0881542,1.97344,1.02261
0.58,0.193283,1.08689,1.00607,0.0878231,1.97057,1.02316
0.59,0.192281,1.08893,1.00414,0.0874909,1.96771,1.02371
0.6,0.191243,1.09097,1.00223,0.0871581,1.96485,1.02425
0.61,0.1901,1.09302,1.00032,0.0868252,1.96198,1.02479
0.62,0.188998,1.09509,0.998426,0.0864919,1.95913,1.02535
0.63,0.187778,1.09714,0.996543,0.0861585,1.9563,1.0259
0.64,0.186599,1.09917,0.994672,0.0858249,1.9535,1.02644
0.65,0.185332,1.10118,0.992814,0.0854912,1.95071,1.02697
0.66,0.184016,1.10319,0.990968,0.0851582,1.94794,1.0275
0.67,0.182708,1.10518,0.989136,0.0848256,1.94518,1.02801
0.68,0.181365,1.10715,0.987316,0.0844932,1.94244,1.02851
0.69,0.180054,1.10912,0.98551,0.0841616,1.93974,1.02903
0.7,0.178643,1.11108,0.983718,0.0838309,1.93707,1.02955
0.71,0.17722,1.11305,0.981939,0.0835008,1.93439,1.03006
0.72,0.175833,1.11499,0.980175,0.0831716,1.93173,1.03056
0.73,0.174389,1.1169,0.978425,0.0828435,1.92911,1.03105
0.74,0.172918,1.11879,0.976689,0.0825164,1.92653,1.03153
0.75,0.171452,1.12064,0.974968,0.0821905,1.92399,1.032
0.76,0.169958,1.12246,0.973262,0.0818655,1.92148,1.03245
0.77,0.168569,1.1243,0.97157,0.0815415,1.919,1.03292
0.78,0.167078,1.12613,0.969893,0.0812188,1.91652,1.03339
0.79,0.165598,1.12794,0.96823,0.0808972,1.91407,1.03385
0.8,0.164095,1.12973,0.966583,0.0805756,1.91165,1.03431
0.81,0.162625,1.13149,0.96495,0.0802546,1.90925,1.03475
0.82,0.161117,1.13323,0.963332,0.0799345,1.90689,1.03518
0.83,0.159607,1.13494,0.96173,0.079616,1.90456,1.0356
0.84,0.158072,1.13664,0.960142,0.0792988,1.90224,1.03601
0.85,0.15655,1.13832,0.95857,0.078983,1.89995,1.03642
0.86,0.155014,1.14001,0.957013,0.0786684,1.89768,1.03684
0.87,0.153472,1.14167,0.955472,0.0783558,1.89545,1.03726
0.88,0.151951,1.1433,0.953946,0.0780453,1.89325,1.03766
0.89,0.15035,1.14491,0.952435,0.0777348,1.89108,1.03806
0.9,0.148831,1.14649,0.95094,0.0774236,1.88894,1.03844
0.91,0.147311,1.14805,0.94946,0.0771122,1.88683,1.03882
0.92,0.145789,1.14958,0.947995,0.0768011,1.88474,1.03919
0.93,0.144265,1.1511,0.946546,0.0764907,1.88268,1.03955
0.94,0.142654,1.15258,0.945111,0.0761812,1.88064,1.03989
0.95,0.141158,1.15407,0.943693,0.0758727,1.87865,1.04026
0.96,0.139645,1.15553,0.94229,0.0755651,1.87667,1.04062
0.97,0.138153,1.15697,0.940902,0.0752584,1.87474,1.04097
0.98,0.136599,1.1584,0.939529,0.0749526,1.8728,1.04131
0.99,0.135112,1.1598,0.938171,0.0746477,1.8709,1.04164
1,0.133628,1.16117,0.936828,0.0743442,1.86903,1.04197
1.01,0.13207,1.16251,0.9355,0.0740424,1.8672,1.04228
1.02,0.130614,1.16382,0.934187,0.0737422,1.8654,1.04258
1.03,0.129151,1.16511,0.932889,0.0734433,1.86363,1.04288
1.04,0.127622,1.16637,0.931605,0.073145,1.86189,1.04317
1.05,0.126158,1.16763,0.930337,0.0728468,1.86018,1.04347
1.06,0.124692,1.16887,0.929084,0.0725499,1.85849,1.04377
1.07,0.123183,1.1701,0.927845,0.0722546,1.85681,1.04406
1.08,0.121752,1.17131,0.926621,0.0719604,1.85516,1.04434
1.09,0.120325,1.1725,0.925411,0.0716673,1.85353,1.04461
1.1,0.118867,1.17366,0.924216,0.0713752,1.85192,1.04488
1.11,0.117481,1.17481,0.923035,0.0710838,1.85033,1.04514
1.12,0.116038,1.17593,0.921868,0.0707935,1.84876,1.04539
1.13,0.114671,1.17704,0.920715,0.0705047,1.84722,1.04563
1.14,0.113306,1.17812,0.919576,0.0702171,1.8457,1.04587
1.15,0.111876,1.17918,0.91845,0.0699306,1.84421,1.0461
1.16,0.11056,1.18022,0.917339,0.0696448,1.84274,1.04632
1.17,0.109161,1.18127,0.916241,0.0693608,1.84129,1.04656
1.18,0.107855,1.1823,0.915156,0.0690779,1.83985,1.04679
1.19,0.106553,1.18331,0.914085,0.0687963,1.83845,1.04702
1.2,0.105203,1.18429,0.913027,0.0685157,1.83706,1.04723
1.21,0.103935,1.18525,0.911982,0.0682365,1.83569,1.04744
1.22,0.102602,1.1862,0.91095,0.0679583,1.83435,1.04764
1.23,0.101373,1.18712,0.90993,0.0676812,1.83303,1.04784
1.24,0.100141,1.18803,0.908923,0.0674054,1.83173,1.04803
1.25,0.09884,1.18891,0.907929,0.0671313,1.83045,1.04821
1.26,0.0976148,1.18978,0.906948,0.0668584,1.82919,1.04839
1.27,0.0963546,1.19062,0.905979,0.0665864,1.82795,1.04856
1.28,0.0951812,1.19145,0.905022,0.0663156,1.82673,1.04872
1.29,0.0939609,1.19226,0.904076,0.0660463,1.82553,1.04888
1.3,0.0926754,1.19308,0.903143,0.0657785,1.82435,1.04906
1.31,0.0916243,1.19388,0.902222,0.0655119,1.82319,1.04923
1.32,0.0905501,1.19466,0.901312,0.0652467,1.82205,1.04939
1.33,0.0894707,1.19542,0.900413,0.0649825,1.82093,1.04955
1.34,0.0883973,1.19616,0.899524,0.0647196,1.81982,1.0497
1.35,0.0873333,1.19689,0.898646,0.0644584,1.81874,1.04984
1.36,0.0862791,1.1976,0.897778,0.0641986,1.81767,1.04998
1.37,0.0852355,1.1983,0.896921,0.0639401,1.81661,1.05011
1.38,0.0842027,1.19898,0.896075,0.0636829,1.81558,1.05024
1.39,0.0831807,1.19964,0.895238,0.0634276,1.81456,1.05037
1.4,0.0821723,1.20029,0.894412,0.0631735,1.81356,1.05048
1.41,0.0811698,1.20092,0.893596,0.0629208,1.81257,1.0506
1.42,0.0801802,1.20154,0.89279,0.0626694,1.8116,1.0507
1.43,0.0792041,1.20215,0.891993,0.0624226,1.81064,1.05081
1.44,0.0782279,1.20275,0.891207,0.0621941,1.8097,1.05091
1.45,0.0772649,1.20334,0.89043,0.0619544,1.80877,1.05101
1.46,0.076311,1.20393,0.889663,0.0617283,1.80786,1.05111
1.47,0.0753655,1.20452,0.888905,0.0615107,1.80697,1.05122
1.48,0.0744258,1.20509,0.888157,0.0612865,1.80609,1.05132
1.49,0.0734934,1.20564,0.887418,0.061059,1.80522,1.05142
1.5,0.0725725,1.20618,0.886688,0.0608291,1.80437,1.05151
1.51,0.0716675,1.2067,0.885967,0.0605977,1.80353,1.0516
1.52,0.0707791,1.20721,0.885256,0.0603675,1.80271,1.05169
1.53,0.0699102,1.20772,0.884553,0.0601524,1.8019,1.05177
1.54,0.069059,1.20823,0.883859,0.0599465,1.8011,1.05185
1.55,0.0682157,1.20872,0.883173,0.0597386,1.80031,1.05193
1.56,0.0673843,1.2092,0.882495,0.0595285,1.79954,1.05201
1.57,0.066561,1.20966,0.881826,0.0593168,1.79878,1.05208
1.58,0.0657497,1.21011,0.881165,0.0591039,1.79803,1.05215
1.59,0.0649498,1.21055,0.880512,0.0588898,1.79729,1.05221
1.6,0.0641621,1.21098,0.879867,0.0586748,1.79656,1.05228
1.61,0.0633892,1.2114,0.87923,0.0584591,1.79585,1.05234
1.62,0.0626252,1.21181,0.8786,0.0582433,1.79514,1.05239
1.63,0.0618723,1.2122,0.877978,0.0580263,1.79445,1.05245
1.64,0.0611298,1.2126,0.877364,0.057825,1.79376,1.0525
1.65,0.0603953,1.21301,0.876757,0.0576296,1.79309,1.05256
1.66,0.059677,1.2134,0.876157,0.0574352,1.79242,1.05262
1.67,0.0589657,1.21379,0.875564,0.057241,1.79177,1.05268
1.68,0.0582704,1.21417,0.874978,0.0570463,1.79112,1.05274
1.69,0.0575879,1.21454,0.874399,0.0568509,1.79049,1.05279
1.7,0.0569113,1.21491,0.873827,0.0566553,1.78986,1.05284
1.71,0.0562476,1.21526,0.873262,0.0564589,1.78924,1.05289
1.72,0.055595,1.2156,0.872703,0.0562621,1.78863,1.05294
1.73,0.0549513,1.21594,0.872151,0.056065,1.78803,1.05298
1.74,0.0543196,1.21626,0.871605,0.0558684,1.78744,1.05302
1.75,0.0536969,1.21658,0.871065,0.055672,1.78686,1.05306
1.76,0.0530849,1.21689,0.870532,0.0554751,1.78628,1.0531
1.77,0.0524865,1.21719,0.870004,0.0552724,1.78571,1.05314
1.78,0.0519041,1.21748,0.869483,0.0550765,1.78515,1.05317
1.79,0.0513334,1.21778,0.868967,0.054889,1.7846,1.0532
1.8,0.0507709,1.21807,0.868457,0.054706,1.78406,1.05323
1.81,0.0502157,1.21835,0.867952,0.0545253,1.78352,1.05326
1.82,0.0496682,1.21863,0.867453,0.054346,1.78299,1.05329
1.83,0.0491297,1.2189,0.86696,0.054168,1.78247,1.05332
1.84,0.0485975,1.21917,0.866472,0.0539907,1.78195,1.05334
1.85,0.048078,1.21943,0.865989,0.053814,1.78145,1.05336
1.86,0.0475659,1.21968,0.865511,0.0536381,1.78094,1.05338
1.87,0.0470611,1.21993,0.865038,0.0534632,1.78045,1.0534
1.88,0.0465673,1.22018,0.86457,0.0532892,1.77996,1.05342
1.89,0.04608,1.22042,0.864107,0.0531161,1.77948,1.05344
1.9,0.045602,1.22065,0.863649,0.0529438,1.779,1.05346
1.91,0.0451285,1.22089,0.863196,0.0527723,1.77853,1.05348
1.92,0.0446613,1.22113,0.862747,0.0526017,1.77807,1.05351
1.93,0.0442004,1.22136,0.862303,0.0524317,1.77761,1.05353
1.94,0.0437484,1.22159,0.861864,0.0522623,1.77715,1.05355
1.95,0.0433055,1.22181,0.861429,0.0520915,1.7767,1.05357
1.96,0.0428733,1.22202,0.860998,0.0519174,1.77626,1.05359
1.97,0.0424485,1.22223,0.860572,0.0517469,1.77582,1.05361
1.98,0.042035,1.22244,0.86015,0.0515807,1.77539,1.05363
1.99,0.0416249,1.22265,0.859732,0.0514181,1.77496,1.05364
2,0.0412209,1.22285,0.859318,0.0512583,1.77454,1.05366
2.01,0.0408226,1.22305,0.858908,0.0511007,1.77412,1.05367
2.02,0.0404302,1.22325,0.858502,0.0509451,1.77371,1.05369
2.03,0.0400412,1.22345,0.8581,0.0507917,1.7733,1.0537
2.04,0.0396585,1.22364,0.857702,0.0506404,1.7729,1.05371
2.05,0.0392819,1.22383,0.857308,0.0504908,1.7725,1.05372
2.06,0.0389182,1.22402,0.856917,0.0503429,1.7721,1.05373
2.07,0.0385614,1.2242,0.85653,0.0501965,1.77171,1.05374
2.08,0.0382124,1.22438,0.856146,0.0500515,1.77133,1.05375
2.09,0.0378773,1.22456,0.855766,0.0499079,1.77095,1.05376
2.1,0.0375524,1.22474,0.855389,0.0497657,1.77057,1.05377
2.11,0.0372287,1.22491,0.855016,0.0496247,1.77019,1.05377
2.12,0.036914,1.22508,0.854646,0.049485,1.76983,1.05378
2.13,0.0366048,1.22525,0.854278,0.0493466,1.76946,1.05378
2.14,0.0362951,1.22541,0.853914,0.0492093,1.7691,1.05379
2.15,0.0359904,1.22558,0.853553,0.0490734,1.76874,1.05379
2.16,0.0356932,1.22574,0.853195,0.048939,1.76839,1.0538
2.17,0.0353957,1.2259,0.85284,0.0488059,1.76803,1.0538
2.18,0.0351054,1.22605,0.852488,0.0486741,1.76769,1.0538
2.19,0.0348139,1.22621,0.852138,0.0485439,1.76734,1.0538
2.2,0.0345395,1.22636,0.851792,0.0484139,1.767,1.05381
2.21,0.034233,1.22651,0.851448,0.0482825,1.76666,1.05381
2.22,0.0339593,1.22666,0.851108,0.0481514,1.76633,1.05381
2.23,0.0336872,1.2268,0.85077,0.0480217,1.76599,1.05381
2.24,0.0334251,1.22695,0.850435,0.0478937,1.76566,1.05381
2.25,0.03316,1.22709,0.850102,0.0477675,1.76534,1.05381
2.26,0.0329064,1.22724,0.849772,0.047643,1.76501,1.05381
2.27,0.0326483,1.22739,0.849444,0.0475202,1.76469,1.05382
2.28,0.0323971,1.22754,0.84912,0.047399,1.76437,1.05382
2.29,0.0321506,1.22769,0.848797,0.0472793,1.76405,1.05383
2.3,0.0318992,1.22783,0.848477,0.0471611,1.76374,1.05383
2.31,0.0316556,1.22798,0.84816,0.0470444,1.76343,1.05384
2.32,0.0314152,1.22812,0.847845,0.046929,1.76312,1.05385
2.33,0.0311734,1.22827,0.847532,0.0468147,1.76281,1.05385
2.34,0.03094,1.22841,0.847222,0.0467015,1.7625,1.05386
2.35,0.0307195,1.22855,0.846914,0.0465894,1.7622,1.05386
2.36,0.0304968,1.2287,0.846608,0.0464781,1.7619,1.05386
2.37,0.0302818,1.22883,0.846304,0.0463677,1.7616,1.05387
2.38,0.0300713,1.22897,0.846003,0.0462581,1.7613,1.05387
2.39,0.029867,1.22911,0.845703,0.0461493,1.76101,1.05388
2.4,0.0296631,1.22925,0.845406,0.0460413,1.76072,1.05388
2.41,0.0294615,1.22938,0.845111,0.0459342,1.76043,1.05388
2.42,0.0292622,1.22952,0.844817,0.045828,1.76014,1.05389
2.43,0.0290584,1.22965,0.844526,0.0457225,1.75985,1.05389
2.44,0.0288599,1.22978,0.844237,0.045618,1.75957,1.05389
2.45,0.0286661,1.22991,0.843949,0.0455142,1.75929,1.05389
2.46,0.0284762,1.23004,0.843664,0.045411,1.75901,1.0539
2.47,0.0282888,1.23017,0.84338,0.0453084,1.75873,1.0539
2.48,0.0281067,1.2303,0.843098,0.0452065,1.75845,1.0539
2.49,0.0279312,1.23042,0.842818,0.0451048,1.75818,1.0539
2.5,0.0277617,1.23055,0.84254,0.0450032,1.75791,1.0539
2.51,0.0275903,1.23067,0.842264,0.0449019,1.75764,1.05391
2.52,0.0274233,1.23079,0.841989,0.0448001,1.75737,1.05391
2.53,0.0272596,1.23091,0.841716,0.0446989,1.7571,1.05391
2.54,0.0270996,1.23103,0.841444,0.0445967,1.75684,1.05391
2.55,0.0269437,1.23115,0.841174,0.0444949,1.75657,1.05391
2.56,0.0267918,1.23126,0.840906,0.044392,1.75631,1.05391
2.57,0.0266429,1.23138,0.840639,0.0442886,1.75605,1.05391
2.58,0.0264968,1.23149,0.840373,0.0441858,1.75579,1.05391
2.59,0.0263517,1.2316,0.840109,0.044083,1.75553,1.05391
2.6,0.0262065,1.23171,0.839846,0.0439793,1.75528,1.05391
2.61,0.0260638,1.23182,0.839585,0.0438763,1.75502,1.05391
2.62,0.025923,1.23193,0.839326,0.0437741,1.75477,1.05391
2.63,0.0257853,1.23204,0.839067,0.0436727,1.75452,1.05391
2.64,0.0256496,1.23214,0.83881,0.0435703,1.75427,1.05391
2.65,0.0255161,1.23225,0.838555,0.0434681,1.75402,1.05391
2.66,0.0253834,1.23235,0.8383,0.0433667,1.75377,1.05391
2.67,0.0252526,1.23246,0.838047,0.0432661,1.75352,1.05391
2.68,0.0251223,1.23257,0.837796,0.0431665,1.75327,1.05391
2.69,0.0249902,1.23267,0.837545,0.0430667,1.75303,1.05391
2.7,0.024856,1.23277,0.837296,0.042966,1.75278,1.05391
2.71,0.0247204,1.23288,0.837048,0.0428661,1.75254,1.05391
2.72,0.024589,1.23298,0.836802,0.0427669,1.7523,1.05391
2.73,0.0244549,1.23308,0.836557,0.0426686,1.75205,1.05391
2.74,0.0242047,1.23319,0.836315,0.0425711,1.75181,1.05391
2.75,0.0241081,1.23329,0.836074,0.042474,1.75157,1.05391
2.76,0.0240099,1.2334,0.835833,0.042375,1.75133,1.05391
2.77,0.0239097,1.2335,0.835594,0.0422768,1.7511,1.05392
2.78,0.0238072,1.23361,0.835356,0.0421793,1.75086,1.05392
2.79,0.0237031,1.23372,0.835118,0.0420826,1.75062,1.05393
2.8,0.0235959,1.23382,0.834882,0.0419867,1.75039,1.05393
2.81,0.0234889,1.23393,0.834647,0.0418916,1.75015,1.05393
2.82,0.0233809,1.23403,0.834413,0.041797,1.74992,1.05394
2.83,0.023272,1.23414,0.83418,0.0417002,1.74968,1.05394
2.84,0.023164,1.23424,0.833948,0.0416043,1.74945,1.05395
2.85,0.023057,1.23435,0.833717,0.0415092,1.74922,1.05395
2.86,0.0229507,1.23445,0.833487,0.041415,1.74898,1.05396
2.87,0.0228444,1.23455,0.833259,0.0413216,1.74875,1.05396
2.88,0.0227376,1.23466,0.833031,0.041229,1.74853,1.05396
2.89,0.0226317,1.23476,0.832804,0.0411373,1.7483,1.05397
2.9,0.0225264,1.23487,0.832579,0.0410459,1.74807,1.05398
2.91,0.0224225,1.23497,0.832354,0.0409522,1.74784,1.05398
2.92,0.0223189,1.23507,0.832131,0.0408593,1.74762,1.05399
2.93,0.0222212,1.23517,0.831909,0.040767,1.7474,1.05399
2.94,0.0221186,1.23527,0.831687,0.0406754,1.74717,1.054
2.95,0.0220201,1.23538,0.831467,0.0405846,1.74695,1.054
2.96,0.0219186,1.23548,0.831247,0.0404947,1.74673,1.05401
2.97,0.0218192,1.23558,0.831029,0.0404055,1.74651,1.05401
2.98,0.0217251,1.23568,0.830811,0.0403172,1.74629,1.05402
2.99,0.0216256,1.23578,0.830595,0.0402282,1.74607,1.05402
3,0.0215259,1.23588,0.83038,0.0401378,1.74585,1.05403
3.01,0.0214303,1.23598,0.830165,0.0400481,1.74564,1.05404
3.02,0.0213331,1.23608,0.829951,0.0399592,1.74542,1.05404
3.03,0.0212437,1.23618,0.829739,0.0398712,1.74521,1.05405
3.04,0.0211499,1.23628,0.829527,0.039784,1.74499,1.05405
3.05,0.0210646,1.23637,0.829316,0.0396977,1.74478,1.05406
3.06,0.0209761,1.23647,0.829106,0.0396121,1.74457,1.05407
3.07,0.0208846,1.23657,0.828897,0.0395272,1.74436,1.05407
3.08,0.0208047,1.23667,0.828689,0.039443,1.74415,1.05408
3.09,0.0207174,1.23677,0.828482,0.039357,1.74394,1.05408
3.1,0.0206346,1.23686,0.828275,0.0392698,1.74373,1.05409
3.11,0.0205497,1.23696,0.82807,0.0391833,1.74352,1.05409
3.12,0.0204669,1.23705,0.827865,0.0390976,1.74331,1.0541
3.13,0.0203825,1.23715,0.827661,0.0390129,1.7431,1.05411
3.14,0.0203017,1.23724,0.827458,0.0389282,1.7429,1.05411
3.15,0.020223,1.23734,0.827256,0.0388437,1.74269,1.05412
3.16,0.0201434,1.23743,0.827054,0.0387596,1.74249,1.05412
3.17,0.0200658,1.23753,0.826854,0.0386759,1.74228,1.05413
3.18,0.0199881,1.23762,0.826654,0.0385925,1.74208,1.05413
3.19,0.0199083,1.23771,0.826455,0.0385095,1.74188,1.05414
3.2,0.0198273,1.23781,0.826256,0.0384268,1.74167,1.05415
3.21,0.0197488,1.2379,0.826059,0.0383446,1.74147,1.05415
3.22,0.0196709,1.23799,0.825862,0.0382619,1.74127,1.05416
3.23,0.0195927,1.23809,0.825666,0.0381775,1.74107,1.05416
3.24,0.0195149,1.23818,0.825471,0.0380935,1.74087,1.05417
3.25,0.0194345,1.23827,0.825277,0.0380101,1.74067,1.05418
3.26,0.0193611,1.23836,0.825083,0.037927,1.74048,1.05418
3.27,0.0192861,1.23845,0.82489,0.0378443,1.74028,1.05419
3.28,0.0192076,1.23854,0.824698,0.037762,1.74008,1.0542
3.29,0.0191339,1.23863,0.824507,0.03768,1.73989,1.0542
3.3,0.0190586,1.23872,0.824316,0.0375983,1.73969,1.05421
3.31,0.0189822,1.23881,0.824126,0.037517,1.73949,1.05422
3.32,0.0189058,1.2389,0.823937,0.037436,1.7393,1.05422
3.33,0.0188273,1.23899,0.823749,0.0373553,1.7391,1.05423
3.34,0.0187486,1.23909,0.823561,0.0372749,1.73891,1.05423
3.35,0.0186677,1.23918,0.823375,0.0371949,1.73872,1.05424
3.36,0.0185862,1.23927,0.823189,0.0371151,1.73852,1.05425
3.37,0.0184952,1.23936,0.823004,0.0370357,1.73833,1.05425
3.38,0.0184057,1.23945,0.82282,0.0369566,1.73814,1.05426
3.39,0.0183196,1.23954,0.822636,0.0368778,1.73794,1.05427
3.4,0.018232,1.23963,0.822454,0.0367993,1.73775,1.05427
3.41,0.018143,1.23972,0.822272,0.0367211,1.73756,1.05428
3.42,0.0180503,1.23982,0.822092,0.0366424,1.73737,1.05429
3.43,0.0179633,1.23991,0.821912,0.0365622,1.73718,1.05431
3.44,0.0178727,1.24,0.821733,0.0364822,1.73699,1.05432
3.45,0.0177818,1.24009,0.821555,0.0364025,1.7368,1.05433
3.46,0.0176876,1.24019,0.821378,0.0363231,1.73661,1.05434
3.47,0.0175966,1.24028,0.821202,0.0362439,1.73642,1.05435
3.48,0.0175043,1.24037,0.821027,0.0361651,1.73624,1.05436
3.49,0.0174089,1.24047,0.820853,0.0360865,1.73605,1.05437
3.5,0.0173165,1.24056,0.82068,0.0360082,1.73586,1.05438
3.51,0.017221,1.24065,0.820507,0.0359302,1.73568,1.0544
