time,velocity,ratio,centerX,Xmax,Xmin,Ymax
0,0,1,21,20,22,1
0.01,0.0192869,1,20.9999,19.9999,21.9999,1
0.02,0.0374502,1,20.9996,19.9996,21.9996,1
0.03,0.054604,1.00001,20.9992,19.9992,21.9991,1
0.04,0.0707758,1.00001,20.9985,19.9986,21.9985,1
0.05,0.0861288,1.00002,20.9978,19.9978,21.9977,1
0.06,0.100662,1.00002,20.9968,19.9969,21.9968,1
0.07,0.114467,1.00003,20.9958,19.9958,21.9957,0.999999
0.08,0.127598,1.00004,20.9945,19.9946,21.9945,0.999998
0.09,0.140115,1.00004,20.9932,19.9933,21.9932,0.999995
0.1,0.152053,1.00005,20.9917,19.9918,21.9917,0.999996
0.11,0.163245,1.00009,20.9902,19.9903,21.9901,1.00002
0.12,0.174222,1.00012,20.9885,19.9886,21.9885,1.00004
0.13,0.184706,1.00015,20.9867,19.9869,21.9867,1.00006
0.14,0.194733,1.00019,20.9848,19.985,21.9848,1.00007
0.15,0.204333,1.00022,20.9828,19.983,21.9828,1.00008
0.16,0.213558,1.00024,20.9807,19.981,21.9806,1.00009
0.17,0.222383,1.00028,20.9785,19.9788,21.9784,1.00009
0.18,0.230841,1.00033,20.9763,19.9766,21.9761,1.00011
0.19,0.23898,1.0004,20.9739,19.9743,21.9737,1.00014
0.2,0.246837,1.00047,20.9715,19.9719,21.9713,1.00017
0.21,0.254357,1.00055,20.969,19.9694,21.9687,1.00019
0.22,0.261607,1.00064,20.9664,19.9669,21.966,1.00021
0.23,0.268535,1.00071,20.9638,19.9643,21.9633,1.00023
0.24,0.275192,1.00078,20.9611,19.9616,21.9605,1.00024
0.25,0.281646,1.00089,20.9583,19.9589,21.9577,1.00028
0.26,0.28795,1.00099,20.9554,19.9561,21.9548,1.00032
0.27,0.294016,1.00109,20.9525,19.9533,21.9518,1.00035
0.28,0.299823,1.00119,20.9496,19.9504,21.9488,1.00038
0.29,0.305469,1.00128,20.9465,19.9474,21.9457,1.00039
0.3,0.310916,1.00137,20.9434,19.9444,21.9425,1.00043
0.31,0.31618,1.00148,20.9403,19.9413,21.9393,1.00047
0.32,0.321291,1.00158,20.9371,19.9382,21.9361,1.00051
0.33,0.326243,1.00169,20.9339,19.935,21.9327,1.00054
0.34,0.330998,1.00177,20.9306,19.9318,21.9294,1.00056
0.35,0.335615,1.00187,20.9273,19.9286,21.926,1.0006
0.36,0.340128,1.00197,20.9239,19.9252,21.9226,1.00065
0.37,0.344458,1.00206,20.9205,19.9219,21.9191,1.00068
0.38,0.348697,1.00216,20.917,19.9185,21.9156,1.00071
0.39,0.352751,1.00224,20.9135,19.915,21.912,1.00073
0.4,0.356731,1.00235,20.91,19.9115,21.9084,1.00078
0.41,0.360575,1.00246,20.9064,19.908,21.9048,1.00082
0.42,0.364354,1.00256,20.9028,19.9045,21.9011,1.00085
0.43,0.367939,1.00264,20.8991,19.9009,21.8973,1.00086
0.44,0.371472,1.00274,20.8954,19.8972,21.8936,1.00091
0.45,0.374962,1.00285,20.8917,19.8936,21.8898,1.00095
0.46,0.37832,1.00294,20.8879,19.8899,21.886,1.00097
0.47,0.381574,1.00302,20.8841,19.8862,21.8821,1.00098
0.48,0.384731,1.00311,20.8803,19.8824,21.8782,1.00101
0.49,0.38786,1.00319,20.8764,19.8786,21.8743,1.00105
0.5,0.390852,1.00328,20.8725,19.8747,21.8703,1.00107
0.51,0.393807,1.00333,20.8686,19.8709,21.8664,1.00108
0.52,0.396687,1.00338,20.8646,19.867,21.8624,1.0011
0.53,0.399545,1.00343,20.8607,19.8631,21.8585,1.00114
0.54,0.402312,1.00348,20.8567,19.8591,21.8545,1.00116
0.55,0.404994,1.00353,20.8526,19.8551,21.8504,1.00116
0.56,0.407639,1.00359,20.8486,19.8511,21.8463,1.00119
0.57,0.410273,1.00366,20.8445,19.847,21.8421,1.00122
0.58,0.412741,1.00372,20.8404,19.8429,21.838,1.00124
0.59,0.415244,1.00375,20.8362,19.8388,21.8338,1.00123
0.6,0.417575,1.00382,20.8321,19.8346,21.8296,1.00127
0.61,0.419962,1.00388,20.8279,19.8305,21.8253,1.00129
0.62,0.42228,1.00393,20.8237,19.8263,21.8211,1.0013
0.63,0.424529,1.00396,20.8194,19.8221,21.8168,1.00129
0.64,0.42679,1.00402,20.8152,19.8179,21.8125,1.00133
0.65,0.429041,1.00407,20.8109,19.8136,21.8082,1.00134
0.66,0.431207,1.00409,20.8066,19.8093,21.8038,1.00133
0.67,0.433324,1.00412,20.8023,19.805,21.7995,1.00134
0.68,0.435295,1.00415,20.7979,19.8007,21.7952,1.00137
0.69,0.437308,1.00418,20.7936,19.7964,21.7908,1.00138
0.7,0.439343,1.00419,20.7892,19.792,21.7864,1.00137
0.71,0.441274,1.00424,20.7848,19.7876,21.782,1.0014
0.72,0.443151,1.00428,20.7804,19.7832,21.7775,1.00142
0.73,0.445035,1.00431,20.7759,19.7788,21.7731,1.00142
0.74,0.44687,1.00434,20.7715,19.7744,21.7686,1.00143
0.75,0.448648,1.00439,20.767,19.7699,21.7641,1.00146
0.76,0.450414,1.00444,20.7625,19.7655,21.7596,1.00147
0.77,0.452122,1.00446,20.758,19.761,21.755,1.00145
0.78,0.453753,1.00451,20.7535,19.7565,21.7505,1.00148
0.79,0.455419,1.00457,20.7489,19.752,21.7459,1.0015
0.8,0.457014,1.00458,20.7443,19.7475,21.7413,1.00149
0.81,0.458555,1.0046,20.7398,19.7429,21.7368,1.0015
0.82,0.460159,1.00461,20.7352,19.7384,21.7322,1.00153
0.83,0.461737,1.00463,20.7306,19.7338,21.7276,1.00153
0.84,0.463261,1.00464,20.7259,19.7292,21.723,1.00152
0.85,0.464807,1.00469,20.7213,19.7246,21.7183,1.00156
0.86,0.466294,1.00473,20.7167,19.7199,21.7136,1.00157
0.87,0.467785,1.00475,20.712,19.7153,21.7089,1.00156
0.88,0.469268,1.0048,20.7073,19.7106,21.7042,1.00158
0.89,0.470701,1.00484,20.7026,19.7059,21.6995,1.0016
0.9,0.472106,1.00487,20.6979,19.7012,21.6947,1.0016
0.91,0.473511,1.0049,20.6932,19.6965,21.6899,1.00161
0.92,0.474924,1.00495,20.6884,19.6918,21.6852,1.00163
0.93,0.476301,1.00497,20.6837,19.687,21.6804,1.00163
0.94,0.477595,1.00498,20.6789,19.6823,21.6756,1.00162
0.95,0.478905,1.00501,20.6741,19.6775,21.6708,1.00166
0.96,0.480214,1.00503,20.6693,19.6727,21.666,1.00167
0.97,0.481512,1.00504,20.6645,19.6679,21.6612,1.00165
0.98,0.48269,1.00508,20.6597,19.6631,21.6564,1.00169
0.99,0.483943,1.00513,20.6549,19.6583,21.6515,1.0017
1,0.485206,1.00515,20.65,19.6535,21.6466,1.0017
1.01,0.486444,1.00519,20.6452,19.6486,21.6417,1.00172
1.02,0.487672,1.00523,20.6403,19.6438,21.6368,1.00174
1.03,0.488816,1.00527,20.6354,19.639,21.6319,1.00174
1.04,0.489974,1.0053,20.6305,19.6341,21.627,1.00174
1.05,0.491104,1.00535,20.6256,19.6292,21.6221,1.00177
1.06,0.492228,1.00537,20.6207,19.6243,21.6171,1.00177
1.07,0.493321,1.00537,20.6158,19.6194,21.6122,1.00176
1.08,0.494411,1.00539,20.6108,19.6145,21.6074,1.00179
1.09,0.495534,1.00541,20.6059,19.6096,21.6024,1.00179
1.1,0.496635,1.00541,20.6009,19.6047,21.5974,1.00178
1.11,0.497717,1.00546,20.5959,19.5997,21.5924,1.00181
1.12,0.498781,1.0055,20.591,19.5947,21.5874,1.00182
1.13,0.499825,1.00551,20.586,19.5897,21.5824,1.0018
1.14,0.500878,1.00556,20.581,19.5848,21.5773,1.00184
1.15,0.501903,1.0056,20.576,19.5798,21.5723,1.00185
1.16,0.502894,1.00561,20.5709,19.5748,21.5672,1.00183
1.17,0.503912,1.00565,20.5659,19.5697,21.5622,1.00186
1.18,0.504907,1.00569,20.5609,19.5647,21.5571,1.00187
1.19,0.505764,1.00569,20.5558,19.5597,21.552,1.00186
1.2,0.506716,1.00571,20.5507,19.5546,21.547,1.00188
1.21,0.507695,1.00573,20.5457,19.5495,21.5419,1.0019
1.22,0.508642,1.00574,20.5406,19.5445,21.5368,1.00189
1.23,0.509565,1.00576,20.5355,19.5394,21.5317,1.00191
1.24,0.510492,1.0058,20.5304,19.5343,21.5266,1.00193
1.25,0.511373,1.00582,20.5253,19.5292,21.5215,1.00192
1.26,0.512272,1.00585,20.5202,19.5241,21.5163,1.00193
1.27,0.513139,1.00589,20.5151,19.519,21.5112,1.00195
1.28,0.513954,1.00592,20.5099,19.5139,21.506,1.00195
1.29,0.514761,1.00595,20.5048,19.5088,21.5009,1.00196
1.3,0.51573,1.00601,20.4996,19.5037,21.4957,1.00198
1.31,0.516389,1.00602,20.4945,19.4985,21.4905,1.00198
1.32,0.517196,1.00603,20.4893,19.4934,21.4854,1.00198
1.33,0.517953,1.00604,20.4841,19.4883,21.4802,1.00201
1.34,0.51873,1.00605,20.4789,19.4831,21.4751,1.002
1.35,0.519535,1.00608,20.4737,19.4779,21.4698,1.00201
1.36,0.520335,1.00612,20.4685,19.4727,21.4646,1.00203
1.37,0.521065,1.00614,20.4633,19.4675,21.4594,1.00202
1.38,0.521864,1.00616,20.4581,19.4623,21.4541,1.00203
1.39,0.522672,1.0062,20.4529,19.4571,21.4489,1.00205
1.4,0.523419,1.00622,20.4477,19.4519,21.4436,1.00204
1.41,0.524179,1.00624,20.4424,19.4467,21.4383,1.00205
1.42,0.524961,1.00628,20.4372,19.4414,21.4331,1.00207
1.43,0.525722,1.00628,20.4319,19.4362,21.4278,1.00206
1.44,0.526453,1.00628,20.4267,19.4309,21.4225,1.00207
1.45,0.527205,1.0063,20.4214,19.4257,21.4173,1.00209
1.46,0.527949,1.0063,20.4161,19.4204,21.412,1.00208
1.47,0.528663,1.00632,20.4109,19.4151,21.4067,1.00209
1.48,0.529367,1.00635,20.4056,19.4098,21.4014,1.00211
1.49,0.530078,1.00635,20.4003,19.4045,21.3961,1.0021
1.5,0.530776,1.00638,20.395,19.3992,21.3908,1.00211
1.51,0.531447,1.00641,20.3897,19.3939,21.3854,1.00213
1.52,0.532091,1.00643,20.3843,19.3887,21.3801,1.00212
1.53,0.532783,1.00645,20.379,19.3834,21.3748,1.00213
1.54,0.533467,1.00649,20.3737,19.378,21.3694,1.00215
1.55,0.534101,1.00648,20.3683,19.3727,21.3641,1.00213
1.56,0.534761,1.00648,20.363,19.3674,21.3588,1.00215
1.57,0.535467,1.00648,20.3577,19.3621,21.3535,1.00216
1.58,0.536124,1.00648,20.3523,19.3567,21.3481,1.00214
1.59,0.536839,1.0065,20.3469,19.3514,21.3427,1.00216
1.6,0.537499,1.00653,20.3416,19.346,21.3373,1.00217
1.61,0.53811,1.00653,20.3362,19.3406,21.3319,1.00215
1.62,0.538798,1.00657,20.3308,19.3352,21.3265,1.00217
1.63,0.539463,1.0066,20.3254,19.3299,21.3211,1.00218
1.64,0.540072,1.00659,20.32,19.3245,21.3157,1.00216
1.65,0.540647,1.00663,20.3146,19.3191,21.3102,1.00219
1.66,0.541315,1.00665,20.3092,19.3136,21.3048,1.00219
1.67,0.541939,1.00663,20.3038,19.3082,21.2994,1.00217
1.68,0.542544,1.00665,20.2984,19.3028,21.294,1.0022
1.69,0.543186,1.00665,20.2929,19.2974,21.2886,1.0022
1.7,0.543795,1.00665,20.2875,19.292,21.2831,1.00219
1.71,0.544313,1.00668,20.2821,19.2865,21.2777,1.00222
1.72,0.54491,1.0067,20.2766,19.2811,21.2722,1.00222
1.73,0.545497,1.00671,20.2712,19.2757,21.2667,1.00222
1.74,0.546088,1.00675,20.2657,19.2702,21.2613,1.00224
1.75,0.546602,1.00677,20.2602,19.2648,21.2558,1.00223
1.76,0.547109,1.00679,20.2548,19.2593,21.2503,1.00224
1.77,0.547641,1.00684,20.2493,19.2539,21.2448,1.00226
1.78,0.54809,1.00683,20.2438,19.2484,21.2393,1.00225
1.79,0.548601,1.00684,20.2383,19.243,21.2339,1.00226
1.8,0.549126,1.00685,20.2329,19.2375,21.2284,1.00228
1.81,0.549674,1.00685,20.2274,19.232,21.2229,1.00226
1.82,0.550222,1.00688,20.2219,19.2266,21.2174,1.00228
1.83,0.550753,1.00691,20.2164,19.2211,21.2119,1.00229
1.84,0.551263,1.00692,20.2108,19.2155,21.2063,1.00227
1.85,0.551822,1.00696,20.2053,19.21,21.2008,1.0023
1.86,0.552377,1.00699,20.1998,19.2045,21.1952,1.00231
1.87,0.552893,1.007,20.1943,19.199,21.1897,1.00229
1.88,0.553437,1.00704,20.1888,19.1935,21.1841,1.00232
1.89,0.553938,1.00705,20.1832,19.1879,21.1785,1.00232
1.9,0.554504,1.00705,20.1777,19.1824,21.173,1.00232
1.91,0.555047,1.00706,20.1721,19.1769,21.1675,1.00234
1.92,0.555596,1.00707,20.1666,19.1713,21.1619,1.00233
1.93,0.556136,1.00708,20.161,19.1658,21.1563,1.00234
1.94,0.556631,1.00711,20.1555,19.1602,21.1508,1.00236
1.95,0.557056,1.00712,20.1499,19.1546,21.1452,1.00235
1.96,0.557602,1.00714,20.1443,19.1491,21.1396,1.00237
1.97,0.558139,1.00718,20.1387,19.1435,21.134,1.00238
1.98,0.558538,1.00718,20.1332,19.138,21.1284,1.00236
1.99,0.559028,1.00722,20.1276,19.1324,21.1228,1.00239
2,0.559508,1.00725,20.122,19.1268,21.1172,1.00239
2.01,0.559937,1.00722,20.1164,19.1212,21.1116,1.00238
2.02,0.560398,1.00723,20.1108,19.1157,21.1061,1.0024
2.03,0.560913,1.00723,20.1052,19.1101,21.1005,1.0024
2.04,0.561383,1.00723,20.0996,19.1045,21.0949,1.00239
2.05,0.561891,1.00727,20.0939,19.0989,21.0892,1.00241
2.06,0.562359,1.00728,20.0883,19.0932,21.0836,1.0024
2.07,0.562829,1.00729,20.0827,19.0876,21.0779,1.00241
2.08,0.563327,1.00732,20.0771,19.082,21.0723,1.00242
2.09,0.563779,1.00732,20.0714,19.0764,21.0666,1.0024
2.1,0.564071,1.00735,20.0658,19.0707,21.061,1.00242
2.11,0.564585,1.00737,20.0602,19.0651,21.0553,1.00243
2.12,0.565057,1.00735,20.0545,19.0594,21.0496,1.0024
2.13,0.565465,1.00737,20.0489,19.0538,21.044,1.00244
2.14,0.56593,1.00737,20.0432,19.0481,21.0383,1.00244
2.15,0.566351,1.00737,20.0375,19.0425,21.0327,1.00243
2.16,0.566782,1.00739,20.0319,19.0368,21.027,1.00245
2.17,0.56717,1.0074,20.0262,19.0312,21.0213,1.00244
2.18,0.567581,1.00741,20.0205,19.0255,21.0156,1.00245
2.19,0.568016,1.00744,20.0149,19.0198,21.0099,1.00246
2.2,0.568347,1.00745,20.0092,19.0142,21.0042,1.00245
2.21,0.568886,1.00748,20.0035,19.0085,20.9986,1.00247
2.22,0.569214,1.00752,19.9978,19.0028,20.9928,1.00248
2.23,0.569235,1.00749,19.9921,18.9972,20.9872,1.00245
2.24,0.569547,1.00751,19.9864,18.9915,20.9815,1.00249
2.25,0.569958,1.00752,19.9807,18.9858,20.9758,1.00249
2.26,0.570325,1.00753,19.975,18.9802,20.9701,1.00248
2.27,0.570718,1.00757,19.9693,18.9745,20.9644,1.0025
2.28,0.571096,1.00758,19.9636,18.9688,20.9587,1.0025
2.29,0.571472,1.0076,19.9579,18.963,20.9529,1.0025
2.3,0.571885,1.00763,19.9522,18.9573,20.9472,1.00252
2.31,0.572231,1.00764,19.9465,18.9516,20.9414,1.0025
2.32,0.572644,1.00766,19.9407,18.9459,20.9357,1.00252
2.33,0.573057,1.00769,19.935,18.9402,20.9299,1.00253
2.34,0.573458,1.00767,19.9293,18.9344,20.9242,1.00251
2.35,0.573811,1.00768,19.9235,18.9287,20.9185,1.00254
2.36,0.574223,1.00769,19.9178,18.923,20.9127,1.00254
2.37,0.574578,1.00768,19.9121,18.9172,20.907,1.00253
2.38,0.574935,1.00771,19.9063,18.9115,20.9012,1.00256
2.39,0.575298,1.00772,19.9006,18.9057,20.8955,1.00255
2.4,0.575685,1.00773,19.8948,18.9,20.8897,1.00256
2.41,0.575743,1.00776,19.889,18.8942,20.8839,1.00257
2.42,0.576036,1.00776,19.8833,18.8885,20.8782,1.00255
2.43,0.576408,1.0078,19.8775,18.8828,20.8724,1.00258
2.44,0.576752,1.00781,19.8718,18.877,20.8666,1.00258
2.45,0.576987,1.00778,19.866,18.8712,20.8609,1.00256
2.46,0.57736,1.00779,19.8602,18.8655,20.8552,1.00259
2.47,0.577771,1.00778,19.8544,18.8597,20.8494,1.00258
2.48,0.578123,1.00779,19.8487,18.8539,20.8436,1.00258
2.49,0.57853,1.00781,19.8429,18.8482,20.8378,1.00259
2.5,0.578732,1.00781,19.8371,18.8424,20.832,1.00258
2.51,0.579105,1.00784,19.8313,18.8366,20.8262,1.00259
2.52,0.579539,1.00786,19.8255,18.8308,20.8203,1.0026
2.53,0.579804,1.00785,19.8197,18.825,20.8145,1.00258
2.54,0.580224,1.00789,19.8139,18.8192,20.8087,1.0026
2.55,0.580634,1.00789,19.8081,18.8134,20.8029,1.0026
2.56,0.581162,1.00787,19.8023,18.8076,20.7971,1.00259
2.57,0.581519,1.00789,19.7965,18.8018,20.7913,1.00261
2.58,0.581896,1.00787,19.7907,18.7959,20.7855,1.00259
2.59,0.58227,1.00789,19.7849,18.7901,20.7797,1.00261
2.6,0.582628,1.0079,19.779,18.7843,20.7738,1.00262
2.61,0.58296,1.00789,19.7732,18.7785,20.768,1.00259
2.62,0.583305,1.00792,19.7674,18.7727,20.7621,1.00262
2.63,0.583629,1.00794,19.7615,18.7668,20.7563,1.00262
2.64,0.583898,1.00795,19.7557,18.761,20.7505,1.00262
2.65,0.584212,1.008,19.7499,18.7552,20.7446,1.00264
2.66,0.584458,1.00798,19.744,18.7494,20.7387,1.00262
2.67,0.584737,1.00797,19.7382,18.7436,20.733,1.00264
2.68,0.585048,1.00799,19.7323,18.7377,20.7271,1.00265
2.69,0.585387,1.00797,19.7265,18.7319,20.7213,1.00262
2.7,0.585714,1.00801,19.7206,18.726,20.7154,1.00265
2.71,0.586022,1.00803,19.7148,18.7202,20.7095,1.00265
2.72,0.586353,1.00804,19.7089,18.7143,20.7036,1.00265
2.73,0.586653,1.00807,19.703,18.7085,20.6977,1.00267
2.74,0.586947,1.00808,19.6972,18.7026,20.6918,1.00266
2.75,0.587283,1.0081,19.6913,18.6967,20.686,1.00267
2.76,0.587673,1.00813,19.6854,18.6909,20.68,1.00268
2.77,0.588009,1.00811,19.6796,18.685,20.6742,1.00266
2.78,0.588314,1.00813,19.6737,18.6791,20.6683,1.00269
2.79,0.588654,1.00813,19.6678,18.6732,20.6624,1.00269
2.8,0.588965,1.00813,19.6619,18.6673,20.6565,1.00268
2.81,0.589267,1.00816,19.656,18.6614,20.6506,1.00271
2.82,0.589573,1.00816,19.6501,18.6556,20.6447,1.00269
2.83,0.5898,1.00818,19.6442,18.6497,20.6388,1.00271
2.84,0.590155,1.00821,19.6383,18.6438,20.6329,1.00272
2.85,0.590334,1.00821,19.6324,18.6379,20.627,1.0027
2.86,0.590654,1.00826,19.6265,18.632,20.6211,1.00273
2.87,0.590929,1.00826,19.6206,18.6261,20.6151,1.00273
2.88,0.591196,1.00824,19.6147,18.6202,20.6093,1.00272
2.89,0.591496,1.00825,19.6088,18.6143,20.6034,1.00274
2.9,0.591756,1.00824,19.6029,18.6084,20.5975,1.00272
2.91,0.592062,1.00826,19.5969,18.6025,20.5916,1.00274
2.92,0.592328,1.00828,19.591,18.5966,20.5856,1.00274
2.93,0.592583,1.00827,19.5851,18.5907,20.5797,1.00272
2.94,0.592884,1.00831,19.5792,18.5847,20.5737,1.00275
2.95,0.593026,1.00832,19.5732,18.5788,20.5678,1.00274
2.96,0.593303,1.00832,19.5673,18.5729,20.5618,1.00274
2.97,0.593623,1.00835,19.5614,18.567,20.5558,1.00275
2.98,0.593926,1.00833,19.5554,18.561,20.5499,1.00273
2.99,0.594184,1.00834,19.5495,18.5551,20.544,1.00275
3,0.594491,1.00834,19.5436,18.5491,20.5381,1.00275
3.01,0.594755,1.00833,19.5376,18.5432,20.5321,1.00274
3.02,0.595033,1.00836,19.5317,18.5372,20.5262,1.00277
3.03,0.595286,1.00836,19.5257,18.5313,20.5202,1.00275
3.04,0.595531,1.00837,19.5198,18.5253,20.5142,1.00276
3.05,0.5958,1.00839,19.5138,18.5194,20.5083,1.00278
3.06,0.595958,1.00839,19.5078,18.5135,20.5023,1.00275
3.07,0.596347,1.00844,19.5019,18.5075,20.4963,1.00278
3.08,0.596522,1.00845,19.4959,18.5016,20.4903,1.00278
3.09,0.596552,1.00843,19.49,18.4956,20.4844,1.00278
3.1,0.59673,1.00845,19.484,18.4897,20.4785,1.0028
3.11,0.597005,1.00844,19.478,18.4838,20.4725,1.00278
3.12,0.59726,1.00847,19.4721,18.4778,20.4666,1.0028
3.13,0.597505,1.00849,19.4661,18.4718,20.4605,1.00281
3.14,0.597719,1.00849,19.4601,18.4658,20.4545,1.00279
3.15,0.597987,1.00853,19.4541,18.4599,20.4485,1.00282
3.16,0.598217,1.00854,19.4481,18.4539,20.4425,1.00281
3.17,0.598476,1.00855,19.4422,18.4479,20.4365,1.00281
3.18,0.598756,1.00858,19.4362,18.4419,20.4305,1.00283
3.19,0.599042,1.00855,19.4302,18.4359,20.4245,1.00281
3.2,0.599271,1.00857,19.4242,18.4299,20.4186,1.00283
3.21,0.599534,1.00857,19.4182,18.4239,20.4126,1.00283
3.22,0.599775,1.00856,19.4122,18.4179,20.4066,1.00282
3.23,0.599995,1.00859,19.4062,18.4119,20.4006,1.00285
3.24,0.600208,1.00859,19.4002,18.4059,20.3945,1.00283
3.25,0.600427,1.0086,19.3942,18.3999,20.3885,1.00285
3.26,0.600706,1.00862,19.3882,18.3939,20.3825,1.00286
3.27,0.600871,1.00862,19.3822,18.388,20.3765,1.00284
3.28,0.601078,1.00866,19.3762,18.382,20.3705,1.00287
3.29,0.601312,1.00865,19.3702,18.376,20.3645,1.00286
3.3,0.601512,1.00863,19.3642,18.37,20.3585,1.00286
3.31,0.601695,1.00864,19.3581,18.364,20.3525,1.00287
3.32,0.601956,1.00863,19.3521,18.358,20.3465,1.00285
3.33,0.602239,1.00865,19.3461,18.3519,20.3405,1.00287
3.34,0.602479,1.00867,19.3401,18.3459,20.3344,1.00287
3.35,0.602603,1.00866,19.3341,18.3399,20.3284,1.00286
3.36,0.602899,1.00869,19.328,18.3338,20.3223,1.00288
3.37,0.6031,1.00869,19.322,18.3278,20.3163,1.00286
3.38,0.603361,1.00871,19.316,18.3218,20.3102,1.00288
3.39,0.603633,1.00873,19.3099,18.3157,20.3041,1.00288
3.4,0.603897,1.0087,19.3039,18.3097,20.2981,1.00286
3.41,0.60413,1.00871,19.2979,18.3037,20.2921,1.00288
3.42,0.604392,1.0087,19.2918,18.2976,20.286,1.00287
3.43,0.604643,1.0087,19.2858,18.2916,20.28,1.00288
3.44,0.604866,1.00872,19.2797,18.2855,20.2739,1.00289
3.45,0.605061,1.00871,19.2737,18.2795,20.2679,1.00287
3.46,0.6053,1.00874,19.2676,18.2734,20.2618,1.00289
3.47,0.60551,1.00875,19.2616,18.2674,20.2558,1.00289
3.48,0.605681,1.00876,19.2555,18.2614,20.2497,1.00289
3.49,0.60594,1.0088,19.2495,18.2553,20.2436,1.00291
3.5,0.60609,1.00877,19.2434,18.2492,20.2376,1.00289
3.51,0.606245,1.00877,19.2373,18.2432,20.2316,1.00291
3.52,0.60647,1.00878,19.2313,18.2372,20.2256,1.00291
3.53,0.606685,1.00877,19.2252,18.2311,20.2195,1.00289
3.54,0.6069,1.0088,19.2191,18.2251,20.2134,1.00292
3.55,0.607106,1.00881,19.2131,18.219,20.2073,1.00291
3.56,0.607325,1.00882,19.207,18.2129,20.2012,1.00292
3.57,0.607563,1.00885,19.2009,18.2068,20.1951,1.00292
3.58,0.607714,1.00884,19.1949,18.2008,20.189,1.0029
3.59,0.608018,1.00888,19.1888,18.1947,20.1829,1.00293
3.6,0.608268,1.00888,19.1827,18.1886,20.1768,1.00293
3.61,0.60843,1.00886,19.1766,18.1825,20.1707,1.00293
3.62,0.608667,1.00888,19.1705,18.1764,20.1647,1.00294
3.63,0.608908,1.00886,19.1644,18.1703,20.1586,1.00292
3.64,0.609124,1.00889,19.1583,18.1643,20.1525,1.00295
3.65,0.609336,1.0089,19.1523,18.1582,20.1464,1.00295
3.66,0.609591,1.0089,19.1462,18.1521,20.1403,1.00294
3.67,0.609773,1.00893,19.1401,18.146,20.1342,1.00296
3.68,0.609867,1.00893,19.134,18.1399,20.128,1.00294
3.69,0.610026,1.00896,19.1279,18.1338,20.1219,1.00296
3.7,0.61021,1.00897,19.1218,18.1277,20.1158,1.00297
3.71,0.610376,1.00893,19.1157,18.1216,20.1098,1.00295
3.72,0.610522,1.00895,19.1096,18.1156,20.1037,1.00297
3.73,0.610747,1.00893,19.1035,18.1095,20.0976,1.00296
3.74,0.610965,1.00894,19.0973,18.1034,20.0915,1.00296
