time,velocity,ratio,centerX,Xmax,Xmin,Ymax
0,0,1,4.75,3.75,5.75,1
0.01,0.0195849,1,4.7499,3.7499,5.7499,1
0.02,0.0381582,1.00002,4.74961,3.74962,5.74959,1
0.03,0.0557867,1.00006,4.74915,3.74918,5.74909,1.00002
0.04,0.0724848,1.00011,4.74851,3.74857,5.74841,1.00003
0.05,0.0882944,1.00015,4.7477,3.74779,5.74758,1.00004
0.06,0.103378,1.00019,4.74675,3.74685,5.74658,1.00006
0.07,0.117756,1.00023,4.74564,3.74578,5.74544,1.00007
0.08,0.131479,1.00027,4.7444,3.74457,5.74416,1.00007
0.09,0.144613,1.0003,4.74302,3.74322,5.74276,1.00007
0.1,0.157284,1.00033,4.74151,3.74174,5.74123,1.00008
0.11,0.169457,1.00035,4.73988,3.74012,5.7396,1.00009
0.12,0.181191,1.00034,4.73812,3.73835,5.73788,1.00011
0.13,0.192494,1.00033,4.73626,3.73646,5.73604,1.00012
0.14,0.203332,1.00033,4.73428,3.73448,5.73407,1.00012
0.15,0.213667,1.00033,4.73219,3.7324,5.73197,1.00011
0.16,0.223511,1.00035,4.73001,3.73024,5.72974,1.0001
0.17,0.232902,1.00035,4.72773,3.72797,5.72742,1.00008
0.18,0.241965,1.00038,4.72536,3.72561,5.72503,1.00009
0.19,0.250759,1.00039,4.72289,3.72314,5.72257,1.0001
0.2,0.259343,1.00037,4.72034,3.72056,5.72007,1.00012
0.21,0.267567,1.00037,4.71771,3.71792,5.71745,1.00013
0.22,0.275366,1.0004,4.715,3.71524,5.7147,1.00014
0.23,0.282835,1.00043,4.71221,3.71248,5.71186,1.00012
0.24,0.290053,1.00048,4.70934,3.70966,5.70895,1.00013
0.25,0.297137,1.00052,4.70641,3.70676,5.70599,1.00014
0.26,0.304041,1.00051,4.7034,3.70374,5.70303,1.00015
0.27,0.310547,1.00051,4.70033,3.70065,5.69997,1.00017
0.28,0.316741,1.00052,4.69719,3.69752,5.6968,1.00016
0.29,0.322719,1.00054,4.694,3.69432,5.69357,1.00017
0.3,0.328663,1.00058,4.69074,3.69111,5.69029,1.00017
0.31,0.334519,1.00056,4.68743,3.6878,5.68702,1.00017
0.32,0.33998,1.00055,4.68406,3.68442,5.68366,1.00017
0.33,0.34501,1.00054,4.68063,3.68098,5.68021,1.00016
0.34,0.350138,1.00056,4.67716,3.67749,5.67673,1.00017
0.35,0.355264,1.00057,4.67363,3.67399,5.6732,1.00017
0.36,0.360105,1.00055,4.67005,3.67042,5.66967,1.00017
0.37,0.36473,1.00056,4.66643,3.6668,5.66603,1.00017
0.38,0.369197,1.00057,4.66276,3.66311,5.66232,1.00017
0.39,0.373704,1.00058,4.65905,3.65941,5.65859,1.00017
0.4,0.378113,1.00057,4.65529,3.65566,5.65487,1.00018
0.41,0.382177,1.00058,4.65149,3.65187,5.65108,1.00018
0.42,0.38615,1.00059,4.64765,3.64803,5.6472,1.00018
0.43,0.39012,1.00062,4.64377,3.64416,5.64329,1.00019
0.44,0.394092,1.00062,4.63985,3.64025,5.6394,1.00019
0.45,0.397831,1.00062,4.63589,3.63632,5.63545,1.00019
0.46,0.401403,1.00064,4.63189,3.63232,5.63142,1.00019
0.47,0.404796,1.00065,4.62786,3.62829,5.62738,1.0002
0.48,0.408247,1.00063,4.6238,3.62422,5.62335,1.0002
0.49,0.411275,1.00062,4.6197,3.62014,5.61928,1.00019
0.5,0.414271,1.00064,4.61557,3.616,5.61512,1.00019
0.51,0.417337,1.00065,4.61141,3.61185,5.61095,1.0002
0.52,0.420333,1.00062,4.60723,3.60764,5.6068,1.00019
0.53,0.423299,1.00061,4.60301,3.60343,5.60258,1.00018
0.54,0.425907,1.00063,4.59876,3.59917,5.59829,1.0002
0.55,0.428671,1.00064,4.59449,3.5949,5.59401,1.0002
0.56,0.43115,1.00062,4.59019,3.5906,5.58975,1.00019
0.57,0.433474,1.00063,4.58587,3.5863,5.58541,1.00019
0.58,0.435927,1.00066,4.58152,3.58195,5.58104,1.0002
0.59,0.43842,1.00065,4.57715,3.57759,5.57669,1.0002
0.6,0.440586,1.00063,4.57276,3.5732,5.57232,1.00019
0.61,0.442743,1.00066,4.56834,3.56878,5.56787,1.0002
0.62,0.4451,1.00068,4.5639,3.56435,5.56341,1.00021
0.63,0.447274,1.00065,4.55944,3.55987,5.55899,1.00021
0.64,0.449206,1.00065,4.55496,3.55541,5.5545,1.00019
0.65,0.451332,1.00068,4.55046,3.5509,5.54996,1.00021
0.66,0.453547,1.00068,4.54593,3.54639,5.54546,1.00021
0.67,0.45543,1.00065,4.54139,3.54184,5.54094,1.0002
0.68,0.457316,1.00067,4.53683,3.53727,5.53635,1.00021
0.69,0.459429,1.00069,4.53224,3.53269,5.53174,1.00021
0.7,0.461261,1.00066,4.52764,3.52808,5.52719,1.00021
0.71,0.462952,1.00066,4.52302,3.52348,5.52256,1.0002
0.72,0.464707,1.00069,4.51838,3.51884,5.51789,1.00021
0.73,0.466578,1.00068,4.51373,3.51419,5.51325,1.00021
0.74,0.468753,1.00066,4.50905,3.50953,5.5086,1.0002
0.75,0.470563,1.00069,4.50435,3.50483,5.50387,1.00021
0.76,0.474525,1.00071,4.49964,3.50012,5.49914,1.00022
0.77,0.477873,1.00072,4.49487,3.49538,5.4944,1.00023
0.78,0.480087,1.00077,4.49008,3.49061,5.48955,1.00024
0.79,0.482308,1.00083,4.48527,3.48583,5.4847,1.00026
0.8,0.484284,1.00083,4.48044,3.481,5.47988,1.00027
0.81,0.485853,1.00084,4.47559,3.47616,5.47501,1.00026
0.82,0.487893,1.00087,4.47072,3.47129,5.4701,1.00028
0.83,0.489798,1.00085,4.46583,3.4664,5.46525,1.00027
0.84,0.491304,1.00081,4.46093,3.4615,5.46037,1.00025
0.85,0.49294,1.00082,4.456,3.45656,5.45544,1.00026
0.86,0.494753,1.0008,4.45107,3.45161,5.45053,1.00025
0.87,0.495879,1.00075,4.44611,3.44665,5.44561,1.00023
0.88,0.497267,1.00075,4.44115,3.44166,5.44063,1.00024
0.89,0.499086,1.00074,4.43617,3.43666,5.43566,1.00023
0.9,0.500132,1.00069,4.43117,3.43166,5.43071,1.00022
0.91,0.501678,1.00071,4.42616,3.42664,5.42568,1.00022
0.92,0.503173,1.00073,4.42114,3.42163,5.42064,1.00023
0.93,0.504287,1.0007,4.41611,3.41659,5.41564,1.00022
0.94,0.505484,1.00073,4.41106,3.41155,5.41055,1.00023
0.95,0.506975,1.00077,4.40599,3.40651,5.40546,1.00024
0.96,0.508319,1.00075,4.40092,3.40144,5.40041,1.00024
0.97,0.509315,1.00079,4.39583,3.39637,5.39529,1.00025
0.98,0.510659,1.00083,4.39073,3.3913,5.39016,1.00026
0.99,0.512013,1.00081,4.38562,3.38618,5.38508,1.00026
1,0.513038,1.00082,4.38049,3.38107,5.37993,1.00025
1.01,0.514292,1.00085,4.37536,3.37593,5.37477,1.00027
1.02,0.51513,1.00082,4.37021,3.37078,5.36967,1.00026
1.03,0.51645,1.00081,4.36505,3.36562,5.36451,1.00025
1.04,0.517688,1.00083,4.35988,3.36045,5.35933,1.00027
1.05,0.518656,1.00079,4.3547,3.35525,5.35419,1.00025
1.06,0.519914,1.00078,4.34951,3.35005,5.34898,1.00025
1.07,0.521123,1.0008,4.3443,3.34484,5.34374,1.00026
1.08,0.522044,1.00077,4.33909,3.33961,5.33856,1.00025
1.09,0.523074,1.00078,4.33386,3.3344,5.33333,1.00024
1.1,0.524355,1.00081,4.32863,3.32917,5.32806,1.00025
1.11,0.525212,1.00078,4.32338,3.32392,5.32285,1.00025
1.12,0.526038,1.0008,4.31812,3.31868,5.31758,1.00025
1.13,0.52733,1.00083,4.31286,3.31341,5.31229,1.00026
1.14,0.528165,1.00081,4.30758,3.30814,5.30704,1.00026
1.15,0.529043,1.00082,4.30229,3.30286,5.30174,1.00026
1.16,0.530086,1.00085,4.297,3.29758,5.29642,1.00027
1.17,0.530844,1.00082,4.2917,3.29227,5.29115,1.00026
1.18,0.531852,1.00084,4.28638,3.28695,5.28581,1.00026
1.19,0.532912,1.00086,4.28106,3.28164,5.28046,1.00028
1.2,0.533754,1.00083,4.27573,3.27629,5.27517,1.00026
1.21,0.534677,1.00084,4.27038,3.27096,5.26981,1.00027
1.22,0.535699,1.00087,4.26503,3.26563,5.26444,1.00027
1.23,0.53634,1.00083,4.25967,3.26026,5.25912,1.00026
1.24,0.537314,1.00085,4.25431,3.2549,5.25373,1.00027
1.25,0.538278,1.00087,4.24893,3.24952,5.24833,1.00027
1.26,0.538839,1.00084,4.24354,3.24414,5.24299,1.00026
1.27,0.539841,1.00086,4.23815,3.23875,5.23758,1.00028
1.28,0.540492,1.00087,4.23275,3.23335,5.23217,1.00028
1.29,0.541021,1.00083,4.22734,3.22793,5.22679,1.00026
1.3,0.542025,1.00086,4.22193,3.22251,5.22134,1.00028
1.31,0.542951,1.00087,4.2165,3.21709,5.2159,1.00028
1.32,0.543669,1.00084,4.21107,3.21166,5.21049,1.00026
1.33,0.544541,1.00088,4.20563,3.20622,5.20503,1.00028
1.34,0.545616,1.00088,4.20018,3.20078,5.19959,1.00028
1.35,0.546232,1.00086,4.19472,3.19533,5.19414,1.00026
1.36,0.547071,1.00089,4.18926,3.18985,5.18865,1.00029
1.37,0.547784,1.00088,4.18378,3.18438,5.18319,1.00028
1.38,0.548498,1.00087,4.1783,3.17891,5.17771,1.00027
1.39,0.549353,1.0009,4.17281,3.17342,5.1722,1.00029
1.4,0.549944,1.00088,4.16732,3.16792,5.16673,1.00028
1.41,0.550503,1.00088,4.16181,3.16242,5.16122,1.00028
1.42,0.551322,1.00091,4.15631,3.15691,5.15568,1.00029
1.43,0.552117,1.00087,4.15079,3.15139,5.1502,1.00028
1.44,0.552726,1.00089,4.14527,3.14588,5.14466,1.00028
1.45,0.553532,1.00091,4.13974,3.14036,5.13911,1.00029
1.46,0.553942,1.00087,4.1342,3.13482,5.13362,1.00027
1.47,0.554483,1.00089,4.12866,3.12927,5.12805,1.00028
1.48,0.555159,1.0009,4.12311,3.12373,5.1225,1.00029
1.49,0.555621,1.00086,4.11756,3.11818,5.11699,1.00026
1.5,0.556236,1.00089,4.112,3.11261,5.11141,1.00029
1.51,0.556866,1.00088,4.10643,3.10705,5.10585,1.00028
1.52,0.557302,1.00086,4.10086,3.10147,5.10029,1.00027
1.53,0.558002,1.00089,4.09529,3.09588,5.09468,1.00029
1.54,0.558543,1.00088,4.0897,3.0903,5.0891,1.00028
1.55,0.558974,1.00088,4.08412,3.08472,5.08352,1.00027
1.56,0.559686,1.00091,4.07852,3.07914,5.0779,1.00029
1.57,0.560102,1.00089,4.07292,3.07354,5.07233,1.00028
1.58,0.560566,1.0009,4.06732,3.06794,5.06671,1.00028
1.59,0.561339,1.00092,4.06171,3.06234,5.06108,1.00029
1.6,0.56171,1.00089,4.0561,3.05672,5.05551,1.00028
1.61,0.562225,1.00091,4.05048,3.05111,5.04987,1.00029
1.62,0.562851,1.00093,4.04485,3.0455,5.04423,1.0003
1.63,0.563183,1.00089,4.03922,3.03986,5.03863,1.00027
1.64,0.5638,1.00092,4.03359,3.03421,5.03296,1.0003
1.65,0.564283,1.00092,4.02795,3.02858,5.02733,1.00029
1.66,0.564367,1.0009,4.02231,3.02294,5.0217,1.00028
1.67,0.564927,1.00094,4.01666,3.0173,5.01603,1.0003
1.68,0.565316,1.00092,4.01101,3.01166,5.0104,1.00029
1.69,0.56565,1.00092,4.00536,3.00601,5.00474,1.00028
1.7,0.56653,1.00094,3.9997,3.00034,4.99906,1.0003
1.71,0.56677,1.00092,3.99403,2.99469,4.99343,1.00029
1.72,0.567173,1.00094,3.98836,2.98902,4.98775,1.0003
1.73,0.567759,1.00095,3.98269,2.98335,4.98207,1.00031
1.74,0.568065,1.00091,3.97701,2.97766,4.97641,1.00028
1.75,0.568589,1.00094,3.97133,2.97197,4.9707,1.0003
1.76,0.569097,1.00094,3.96564,2.96628,4.965,1.0003
1.77,0.569433,1.00091,3.95995,2.96059,4.95933,1.00028
1.78,0.570042,1.00094,3.95425,2.95489,4.95361,1.0003
1.79,0.570431,1.00092,3.94855,2.94919,4.94793,1.00029
1.8,0.570784,1.00092,3.94284,2.94348,4.94222,1.00029
1.81,0.571429,1.00094,3.93713,2.93777,4.93649,1.0003
1.82,0.571728,1.00091,3.93142,2.93205,4.93082,1.00029
1.83,0.572147,1.00093,3.9257,2.92634,4.92508,1.0003
1.84,0.57271,1.00094,3.91997,2.92063,4.91935,1.0003
1.85,0.572975,1.0009,3.91424,2.91489,4.91364,1.00028
1.86,0.573465,1.00094,3.90851,2.90915,4.90788,1.00031
1.87,0.573924,1.00094,3.90278,2.90342,4.90214,1.0003
1.88,0.574235,1.00093,3.89704,2.89769,4.89641,1.00029
1.89,0.574811,1.00096,3.89129,2.89195,4.89065,1.00031
1.9,0.575026,1.00094,3.88554,2.88621,4.88492,1.0003
1.91,0.575337,1.00095,3.87979,2.88046,4.87916,1.0003
1.92,0.575904,1.00097,3.87404,2.8747,4.87339,1.00031
1.93,0.576116,1.00093,3.86828,2.86895,4.86767,1.00029
1.94,0.576569,1.00095,3.86251,2.86318,4.86189,1.00031
1.95,0.577069,1.00096,3.85675,2.85742,4.85612,1.00031
1.96,0.57734,1.00092,3.85097,2.85164,4.85037,1.00029
1.97,0.577862,1.00096,3.8452,2.84585,4.84456,1.00031
1.98,0.578247,1.00094,3.83942,2.84007,4.83879,1.0003
1.99,0.57853,1.00094,3.83363,2.83429,4.833,1.00029
2,0.579094,1.00097,3.82785,2.82851,4.8272,1.00031
2.01,0.579348,1.00093,3.82206,2.82272,4.82144,1.00029
2.02,0.579721,1.00095,3.81626,2.81692,4.81562,1.0003
2.03,0.580247,1.00097,3.81046,2.81113,4.80981,1.00031
2.04,0.580423,1.00093,3.80466,2.80532,4.80404,1.00029
2.05,0.580867,1.00097,3.79885,2.79952,4.79821,1.00031
2.06,0.581219,1.00096,3.79304,2.79372,4.79241,1.00031
2.07,0.581449,1.00095,3.78723,2.7879,4.7866,1.0003
2.08,0.581984,1.00098,3.78141,2.78208,4.78075,1.00032
2.09,0.582222,1.00095,3.77559,2.77626,4.77496,1.0003
2.1,0.582459,1.00097,3.76977,2.77044,4.76912,1.00031
2.11,0.582919,1.00099,3.76394,2.76463,4.76328,1.00031
2.12,0.583056,1.00095,3.75811,2.7588,4.75748,1.00029
2.13,0.583411,1.00099,3.75228,2.75297,4.75162,1.00032
2.14,0.583724,1.00099,3.74645,2.74714,4.74579,1.00031
2.15,0.583855,1.00097,3.74061,2.74131,4.73997,1.0003
2.16,0.584324,1.001,3.73477,2.73547,4.73412,1.00032
2.17,0.58455,1.00097,3.72892,2.72962,4.7283,1.00031
2.18,0.584824,1.00098,3.72308,2.72376,4.72243,1.00032
2.19,0.585287,1.001,3.71723,2.71791,4.71656,1.00032
2.2,0.585396,1.00096,3.71137,2.71205,4.71073,1.0003
2.21,0.585066,1.001,3.70552,2.70621,4.70486,1.00032
2.22,0.585355,1.001,3.69967,2.70037,4.69901,1.00032
2.23,0.5855,1.00098,3.69382,2.69451,4.69317,1.0003
2.24,0.585941,1.00101,3.68796,2.68865,4.68729,1.00033
2.25,0.587109,1.00099,3.6821,2.68279,4.68145,1.00031
2.26,0.587626,1.001,3.67622,2.67692,4.67556,1.00032
2.27,0.58825,1.00103,3.67035,2.67106,4.66967,1.00033
2.28,0.588542,1.00099,3.66446,2.66517,4.66381,1.00031
2.29,0.589038,1.00102,3.65858,2.65927,4.65789,1.00033
2.3,0.589356,1.00102,3.65268,2.65339,4.652,1.00033
2.31,0.589654,1.00101,3.64679,2.6475,4.64611,1.00032
2.32,0.59023,1.00104,3.64089,2.64161,4.6402,1.00033
2.33,0.590499,1.00102,3.63499,2.63571,4.63432,1.00032
2.34,0.590785,1.00102,3.62908,2.6298,4.6284,1.00032
2.35,0.591269,1.00103,3.62317,2.6239,4.62249,1.00033
2.36,0.591429,1.00099,3.61726,2.61798,4.61662,1.0003
2.37,0.591889,1.00102,3.61134,2.61206,4.61069,1.00033
2.38,0.592246,1.00101,3.60542,2.60614,4.60477,1.00032
2.39,0.592486,1.00099,3.5995,2.60021,4.59885,1.00031
2.4,0.592991,1.00102,3.59357,2.59427,4.59289,1.00033
2.41,0.593217,1.00099,3.58764,2.58834,4.58698,1.00031
2.42,0.593485,1.00101,3.58171,2.58241,4.58103,1.00032
2.43,0.593858,1.00103,3.57577,2.57649,4.57508,1.00033
2.44,0.593979,1.001,3.56983,2.57055,4.56917,1.00031
2.45,0.594369,1.00103,3.56389,2.5646,4.5632,1.00033
2.46,0.594587,1.00102,3.55795,2.55867,4.55727,1.00033
2.47,0.594744,1.00103,3.552,2.55272,4.55133,1.00033
2.48,0.595169,1.00105,3.54605,2.54679,4.54536,1.00034
2.49,0.595275,1.00102,3.5401,2.54083,4.53944,1.00032
2.5,0.59556,1.00105,3.53415,2.53487,4.53345,1.00034
2.51,0.595901,1.00105,3.52819,2.52892,4.52749,1.00034
2.52,0.595938,1.00103,3.52223,2.52296,4.52155,1.00032
2.53,0.596315,1.00106,3.51627,2.51701,4.51557,1.00034
2.54,0.596422,1.00104,3.51031,2.51105,4.50962,1.00033
2.55,0.596543,1.00105,3.50434,2.50509,4.50365,1.00033
2.56,0.596919,1.00107,3.49837,2.49913,4.49766,1.00034
2.57,0.59689,1.00104,3.49241,2.49317,4.49173,1.00032
2.58,0.597159,1.00107,3.48644,2.48719,4.48575,1.00035
2.59,0.597365,1.00106,3.48046,2.48123,4.47979,1.00034
2.6,0.597463,1.00105,3.47449,2.47524,4.47381,1.00034
2.61,0.597833,1.00108,3.46851,2.46926,4.4678,1.00035
2.62,0.597926,1.00104,3.46254,2.46328,4.46185,1.00033
2.63,0.598147,1.00106,3.45656,2.4573,4.45585,1.00034
2.64,0.598462,1.00107,3.45057,2.45133,4.44986,1.00034
2.65,0.598536,1.00104,3.44459,2.44534,4.44391,1.00032
2.66,0.598893,1.00107,3.4386,2.43934,4.4379,1.00035
2.67,0.599034,1.00105,3.43261,2.43335,4.43192,1.00034
2.68,0.599155,1.00105,3.42662,2.42737,4.42593,1.00034
2.69,0.599521,1.00108,3.42063,2.42139,4.41993,1.00035
2.7,0.599543,1.00104,3.41463,2.41538,4.41396,1.00033
2.71,0.599788,1.00107,3.40864,2.40938,4.40793,1.00035
2.72,0.600032,1.00108,3.40264,2.40339,4.40193,1.00034
2.73,0.600107,1.00106,3.39664,2.39739,4.39594,1.00034
2.74,0.600462,1.0011,3.39064,2.3914,4.38992,1.00035
2.75,0.600508,1.00107,3.38463,2.3854,4.38394,1.00034
2.76,0.600644,1.00109,3.37863,2.37939,4.37791,1.00035
2.77,0.600798,1.0011,3.37262,2.3734,4.3719,1.00035
2.78,0.60081,1.00106,3.36661,2.36739,4.36592,1.00033
2.79,0.601177,1.00109,3.3606,2.36137,4.3599,1.00036
2.8,0.601318,1.00108,3.35459,2.35537,4.3539,1.00035
2.81,0.601492,1.00108,3.34858,2.34934,4.34788,1.00035
2.82,0.601876,1.0011,3.34256,2.34333,4.34184,1.00035
2.83,0.600011,1.00106,3.33655,2.3373,4.33585,1.00033
2.84,0.599574,1.00108,3.33055,2.3313,4.32983,1.00035
2.85,0.599605,1.00108,3.32455,2.32532,4.32384,1.00034
2.86,0.599507,1.00106,3.31856,2.31932,4.31786,1.00033
2.87,0.599471,1.00108,3.31257,2.31331,4.31185,1.00035
2.88,0.59937,1.00105,3.30657,2.30732,4.30589,1.00033
2.89,0.599387,1.00107,3.30058,2.30133,4.29988,1.00034
2.9,0.599514,1.00108,3.29458,2.29535,4.29388,1.00035
2.91,0.599452,1.00105,3.28859,2.28935,4.2879,1.00033
2.92,0.599137,1.00109,3.2826,2.28335,4.28188,1.00035
2.93,0.599031,1.00108,3.27661,2.27737,4.2759,1.00034
2.94,0.598959,1.00108,3.27062,2.27138,4.26991,1.00034
2.95,0.599122,1.00111,3.26463,2.26541,4.2639,1.00035
2.96,0.598947,1.00108,3.25864,2.25942,4.25794,1.00033
2.97,0.598966,1.00111,3.25265,2.25343,4.25192,1.00035
2.98,0.599002,1.00111,3.24666,2.24745,4.24593,1.00035
2.99,0.598848,1.00109,3.24067,2.24147,4.23997,1.00034
3,0.599047,1.00112,3.23468,2.23547,4.23397,1.00036
3.01,0.598989,1.00109,3.22869,2.22948,4.228,1.00035
3.02,0.599023,1.0011,3.2227,2.22348,4.22199,1.00036
3.03,0.599202,1.00112,3.21671,2.21749,4.21598,1.00036
3.04,0.599134,1.00108,3.21072,2.2115,4.21001,1.00033
3.05,0.599339,1.00112,3.20473,2.2055,4.20399,1.00036
3.06,0.599363,1.00111,3.19873,2.19952,4.19801,1.00035
3.07,0.599351,1.0011,3.19274,2.19353,4.19202,1.00035
3.08,0.599524,1.00112,3.18675,2.18753,4.18601,1.00036
3.09,0.599447,1.00109,3.18075,2.18153,4.18005,1.00034
3.1,0.599554,1.00112,3.17476,2.17554,4.17403,1.00036
3.11,0.599692,1.00112,3.16876,2.16956,4.16804,1.00036
3.12,0.599645,1.0011,3.16277,2.16356,4.16205,1.00035
3.13,0.599875,1.00113,3.15677,2.15755,4.15602,1.00037
3.14,0.599787,1.00111,3.15077,2.15156,4.15004,1.00035
3.15,0.599865,1.00113,3.14477,2.14557,4.14404,1.00036
3.16,0.600135,1.00115,3.13877,2.13959,4.13802,1.00037
3.17,0.600019,1.00111,3.13277,2.13359,4.13205,1.00034
3.18,0.600161,1.00114,3.12677,2.12758,4.12604,1.00037
3.19,0.600171,1.00113,3.12077,2.12159,4.12004,1.00036
3.2,0.600106,1.00112,3.11477,2.11558,4.11406,1.00035
3.21,0.600324,1.00114,3.10877,2.10958,4.10805,1.00037
3.22,0.60026,1.0011,3.10277,2.10357,4.10207,1.00035
3.23,0.600351,1.00112,3.09676,2.09755,4.09604,1.00036
3.24,0.600501,1.00113,3.09076,2.09155,4.09002,1.00036
3.25,0.600425,1.00111,3.08476,2.08555,4.08403,1.00034
3.26,0.600626,1.00114,3.07875,2.07955,4.078,1.00037
3.27,0.600591,1.00112,3.07274,2.07355,4.07202,1.00035
3.28,0.600601,1.00113,3.06674,2.06755,4.066,1.00036
3.29,0.600803,1.00115,3.06073,2.06154,4.05998,1.00037
3.3,0.600678,1.00112,3.05473,2.05554,4.054,1.00035
3.31,0.600825,1.00116,3.04872,2.04953,4.04797,1.00038
3.32,0.600858,1.00115,3.04271,2.04354,4.04197,1.00037
3.33,0.600809,1.00115,3.0367,2.03753,4.03596,1.00037
3.34,0.601041,1.00118,3.03069,2.03152,4.02992,1.00038
3.35,0.600593,1.00114,3.02469,2.0255,4.02394,1.00036
3.36,0.60059,1.00117,3.01868,2.0195,4.01792,1.00038
3.37,0.600639,1.00118,3.01267,2.01352,4.01191,1.00037
3.38,0.600456,1.00116,3.00667,2.00752,4.00592,1.00036
3.39,0.600724,1.00118,3.00067,2.0015,3.9999,1.00038
3.4,0.600362,1.00117,2.99466,1.99551,3.99391,1.00037
3.41,0.600244,1.00118,2.98866,1.98951,3.98791,1.00038
3.42,0.600352,1.00119,2.98266,1.98352,3.9819,1.00039
3.43,0.599893,1.00115,2.97665,1.9775,3.97593,1.00036
3.44,0.599845,1.00119,2.97066,1.97149,3.96989,1.00039
3.45,0.599786,1.00118,2.96466,1.9655,3.96389,1.00038
3.46,0.599678,1.00117,2.95866,1.9595,3.9579,1.00037
3.47,0.599813,1.0012,2.95266,1.95351,3.95189,1.00038
3.48,0.599645,1.00116,2.94667,1.94751,3.94592,1.00036
3.49,0.599644,1.00118,2.94067,1.94151,3.93991,1.00038
3.5,0.599706,1.00118,2.93468,1.93551,3.93391,1.00038
3.51,0.599382,1.00116,2.92868,1.92952,3.92794,1.00036
3.52,0.599818,1.00119,2.92268,1.92353,3.92192,1.00039
3.53,0.599838,1.00118,2.91669,1.91754,3.91594,1.00038
3.54,0.599837,1.00119,2.91069,1.91154,3.90992,1.00038
3.55,0.600081,1.00121,2.90469,1.90555,3.9039,1.00039
3.56,0.599978,1.00118,2.89869,1.89955,3.89793,1.00037
3.57,0.600148,1.00122,2.89269,1.89355,3.8919,1.00039
3.58,0.600151,1.00122,2.88669,1.88757,3.8859,1.00039
3.59,0.600042,1.00122,2.88069,1.88157,3.87991,1.00038
3.6,0.600179,1.00124,2.87469,1.87556,3.87389,1.0004
3.61,0.600022,1.0012,2.86869,1.86957,3.86792,1.00038
3.62,0.599916,1.00122,2.86269,1.86357,3.86191,1.00039
3.63,0.60003,1.00123,2.85669,1.85758,3.85591,1.0004
3.64,0.599921,1.0012,2.85069,1.85157,3.84993,1.00038
3.65,0.600112,1.00123,2.84469,1.84556,3.8439,1.0004
3.66,0.600032,1.00121,2.83869,1.83956,3.83791,1.00038
3.67,0.599975,1.00122,2.83269,1.83356,3.8319,1.00039
3.68,0.600139,1.00124,2.82669,1.82757,3.82589,1.00039
3.69,0.600108,1.0012,2.82069,1.82157,3.81992,1.00037
3.7,0.600449,1.00124,2.81469,1.81556,3.81389,1.0004
3.71,0.599948,1.00124,2.80868,1.80957,3.80789,1.0004
3.72,0.59594,1.00122,2.80271,1.8036,3.80192,1.00039
3.73,0.595364,1.00124,2.79675,1.79763,3.79596,1.0004
3.74,0.594829,1.00119,2.7908,1.79167,3.79004,1.00038
