time,velocity,ratio,centerX,Xmax,Xmin,Ymax
0,0,1,41,40,42,1
0.01,0.0192407,0.999989,40.9999,39.9999,41.9999,1.00001
0.02,0.0373556,1,40.9996,39.9996,41.9996,1.00001
0.03,0.0544638,1.00001,40.9992,39.9992,41.9992,1.00002
0.04,0.0706174,1.00003,40.9986,39.9986,41.9985,1.00002
0.05,0.0858856,1.00005,40.9978,39.9978,41.9977,1.00002
0.06,0.10043,1.00006,40.9969,39.9969,41.9968,1.00002
0.07,0.114261,1.00008,40.9958,39.9958,41.9957,1.00002
0.08,0.127422,1.00009,40.9946,39.9946,41.9945,1.00002
0.09,0.139961,1.0001,40.9933,39.9933,41.9931,1.00002
0.1,0.151931,1.00011,40.9918,39.9919,41.9917,1.00001
0.11,0.163362,1.00014,40.9903,39.9903,41.9901,1.00002
0.12,0.174309,1.00017,40.9886,39.9887,41.9884,1.00004
0.13,0.184806,1.00019,40.9868,39.9869,41.9866,1.00006
0.14,0.194761,1.0002,40.9849,39.985,41.9848,1.00008
0.15,0.204313,1.0002,40.9829,39.9831,41.9829,1.00009
0.16,0.213449,1.00018,40.9809,39.9811,41.9809,1.00009
0.17,0.222238,1.00018,40.9787,39.9789,41.9788,1.0001
0.18,0.230664,1.00018,40.9764,39.9767,41.9765,1.00011
0.19,0.238764,1.00023,40.9741,39.9744,41.9742,1.00014
0.2,0.246542,1.00029,40.9717,39.9721,41.9718,1.00017
0.21,0.254039,1.00035,40.9692,39.9696,41.9693,1.00019
0.22,0.261267,1.00041,40.9666,39.9671,41.9668,1.00022
0.23,0.268072,1.00047,40.964,39.9646,41.9641,1.00025
0.24,0.274745,1.00054,40.9612,39.9619,41.9614,1.00027
0.25,0.281277,1.00064,40.9585,39.9592,41.9586,1.0003
0.26,0.287486,1.00078,40.9556,39.9565,41.9556,1.00035
0.27,0.293501,1.00093,40.9527,39.9537,41.9527,1.0004
0.28,0.299273,1.00106,40.9498,39.9509,41.9496,1.00044
0.29,0.304958,1.00119,40.9468,39.9479,41.9465,1.00048
0.3,0.310345,1.00132,40.9437,39.945,41.9434,1.00051
0.31,0.315554,1.0015,40.9406,39.9419,41.9401,1.00058
0.32,0.320658,1.00168,40.9374,39.9388,41.9368,1.00065
0.33,0.325461,1.00187,40.9342,39.9357,41.9334,1.00071
0.34,0.330227,1.00207,40.9309,39.9326,41.9299,1.00076
0.35,0.33481,1.00229,40.9276,39.9294,41.9264,1.0008
0.36,0.339228,1.00255,40.9242,39.9262,41.9228,1.00089
0.37,0.343528,1.00279,40.9208,39.9229,41.9193,1.00097
0.38,0.347678,1.00301,40.9173,39.9196,41.9157,1.00104
0.39,0.351643,1.00323,40.9138,39.9163,41.912,1.0011
0.4,0.355562,1.00349,40.9103,39.9129,41.9083,1.00118
0.41,0.359389,1.00378,40.9067,39.9095,41.9045,1.00128
0.42,0.363053,1.00405,40.9031,39.9061,41.9008,1.00137
0.43,0.366636,1.00433,40.8995,39.9027,41.8969,1.00145
0.44,0.37006,1.00462,40.8958,39.8992,41.893,1.00153
0.45,0.373433,1.00496,40.8921,39.8957,41.8891,1.00164
0.46,0.376681,1.00529,40.8883,39.8922,41.8851,1.00175
0.47,0.379855,1.00563,40.8846,39.8886,41.8811,1.00184
0.48,0.382873,1.00596,40.8808,39.8851,41.877,1.00192
0.49,0.385846,1.00631,40.8769,39.8814,41.8729,1.00204
0.5,0.388792,1.00667,40.873,39.8777,41.8688,1.00216
0.51,0.391586,1.00702,40.8691,39.874,41.8646,1.00226
0.52,0.394273,1.00736,40.8652,39.8703,41.8603,1.00235
0.53,0.396988,1.00772,40.8613,39.8666,41.8562,1.00249
0.54,0.399656,1.00806,40.8573,39.8628,41.852,1.00261
0.55,0.402242,1.00841,40.8533,39.8591,41.8478,1.00273
0.56,0.40473,1.00875,40.8492,39.8553,41.8436,1.00282
0.57,0.407158,1.00913,40.8452,39.8515,41.8393,1.00297
0.58,0.40951,1.0095,40.8411,39.8477,41.835,1.0031
0.59,0.411808,1.00989,40.837,39.8438,41.8306,1.00322
0.6,0.414053,1.01028,40.8329,39.8399,41.8262,1.00333
0.61,0.416231,1.0107,40.8287,39.836,41.8217,1.00348
0.62,0.418396,1.01112,40.8246,39.8321,41.8173,1.00362
0.63,0.420483,1.01156,40.8204,39.8282,41.8127,1.00374
0.64,0.422547,1.01199,40.8161,39.8242,41.8082,1.00386
0.65,0.424533,1.01246,40.8119,39.8202,41.8036,1.00402
0.66,0.426553,1.01292,40.8077,39.8162,41.7989,1.00416
0.67,0.428527,1.01334,40.8034,39.8121,41.7943,1.00429
0.68,0.43039,1.01378,40.7991,39.8081,41.7896,1.00443
0.69,0.432229,1.01425,40.7948,39.804,41.785,1.00459
0.7,0.434032,1.01472,40.7905,39.8,41.7803,1.00474
0.71,0.435805,1.01517,40.7861,39.7959,41.7756,1.00486
0.72,0.437516,1.01567,40.7817,39.7918,41.7708,1.00503
0.73,0.439191,1.01617,40.7774,39.7877,41.7661,1.00519
0.74,0.440836,1.01666,40.773,39.7836,41.7613,1.00534
0.75,0.4424,1.01717,40.7686,39.7795,41.7565,1.00548
0.76,0.44395,1.01772,40.7641,39.7753,41.7516,1.00566
0.77,0.44544,1.01825,40.7597,39.7712,41.7468,1.00582
0.78,0.446859,1.0188,40.7552,39.7671,41.7419,1.00596
0.79,0.448236,1.0194,40.7507,39.763,41.7369,1.00613
0.8,0.449638,1.01994,40.7463,39.7588,41.732,1.00631
0.81,0.450992,1.02041,40.7418,39.7546,41.7272,1.00646
0.82,0.452302,1.02087,40.7372,39.7503,41.7224,1.00661
0.83,0.453585,1.02139,40.7327,39.7461,41.7175,1.0068
0.84,0.454891,1.02191,40.7282,39.7419,41.7126,1.00697
0.85,0.456209,1.02244,40.7236,39.7376,41.7077,1.00712
0.86,0.457546,1.02302,40.7191,39.7334,41.7027,1.0073
0.87,0.458758,1.02358,40.7145,39.7292,41.6977,1.00748
0.88,0.459983,1.02414,40.7099,39.7249,41.6927,1.00765
0.89,0.461158,1.02472,40.7053,39.7206,41.6876,1.0078
0.9,0.462299,1.02534,40.7007,39.7163,41.6825,1.008
0.91,0.463503,1.02595,40.696,39.712,41.6774,1.00818
0.92,0.464647,1.02656,40.6914,39.7077,41.6722,1.00834
0.93,0.465813,1.02717,40.6867,39.7034,41.6671,1.00853
0.94,0.466916,1.02777,40.6821,39.699,41.662,1.00872
0.95,0.46801,1.02836,40.6774,39.6946,41.6568,1.00889
0.96,0.469048,1.02893,40.6727,39.6902,41.6516,1.00906
0.97,0.470066,1.02954,40.668,39.6858,41.6464,1.00927
0.98,0.471028,1.03015,40.6633,39.6814,41.6412,1.00945
0.99,0.472022,1.03075,40.6586,39.677,41.636,1.00962
1,0.472981,1.03139,40.6539,39.6726,41.6308,1.00982
1.01,0.473843,1.03204,40.6492,39.6682,41.6255,1.01002
1.02,0.474718,1.03265,40.6444,39.6637,41.6203,1.01019
1.03,0.475634,1.0333,40.6397,39.6593,41.6149,1.01037
1.04,0.47654,1.03399,40.6349,39.6549,41.6096,1.01058
1.05,0.477158,1.0346,40.6301,39.6505,41.6044,1.01076
1.06,0.478068,1.03518,40.6254,39.646,41.5992,1.01093
1.07,0.478931,1.03585,40.6206,39.6416,41.5939,1.01114
1.08,0.479788,1.03649,40.6158,39.6372,41.5886,1.01134
1.09,0.480616,1.0371,40.611,39.6327,41.5833,1.01151
1.1,0.481411,1.03773,40.6062,39.6282,41.578,1.01171
1.11,0.482233,1.03836,40.6014,39.6236,41.5727,1.01191
1.12,0.483036,1.03899,40.5965,39.6191,41.5673,1.01209
1.13,0.483806,1.03966,40.5917,39.6146,41.562,1.01228
1.14,0.484514,1.04035,40.5869,39.6101,41.5566,1.01249
1.15,0.485249,1.04104,40.582,39.6056,41.5511,1.01268
1.16,0.486005,1.0417,40.5772,39.6011,41.5457,1.01285
1.17,0.486742,1.04239,40.5723,39.5965,41.5403,1.01307
1.18,0.487488,1.04307,40.5674,39.592,41.5349,1.01327
1.19,0.488233,1.04373,40.5626,39.5875,41.5294,1.01344
1.2,0.48891,1.04441,40.5577,39.5829,41.524,1.01365
1.21,0.489613,1.04511,40.5528,39.5783,41.5185,1.01385
1.22,0.49031,1.04578,40.5479,39.5738,41.5131,1.01404
1.23,0.490973,1.04643,40.543,39.5691,41.5076,1.01423
1.24,0.491597,1.04712,40.5381,39.5645,41.5021,1.01444
1.25,0.492326,1.04778,40.5332,39.5599,41.4966,1.01463
1.26,0.492828,1.04846,40.5282,39.5552,41.491,1.01481
1.27,0.493403,1.04919,40.5233,39.5506,41.4855,1.01503
1.28,0.493922,1.04985,40.5184,39.546,41.48,1.01523
1.29,0.494514,1.05046,40.5134,39.5413,41.4746,1.01541
1.3,0.49514,1.05113,40.5085,39.5367,41.4691,1.01562
1.31,0.495706,1.05179,40.5035,39.5321,41.4637,1.01583
1.32,0.496258,1.05244,40.4986,39.5275,41.4582,1.01601
1.33,0.4968,1.05313,40.4936,39.5228,41.4527,1.01621
1.34,0.497333,1.05383,40.4886,39.5182,41.4472,1.01642
1.35,0.497883,1.05455,40.4837,39.5136,41.4417,1.01661
1.36,0.49838,1.05525,40.4787,39.509,41.4361,1.0168
1.37,0.498851,1.05597,40.4737,39.5043,41.4305,1.01701
1.38,0.49924,1.05667,40.4687,39.4996,41.4249,1.01721
1.39,0.499598,1.05737,40.4637,39.4949,41.4193,1.01739
1.4,0.500116,1.05811,40.4587,39.4903,41.4137,1.01761
1.41,0.500609,1.05885,40.4537,39.4856,41.4081,1.01781
1.42,0.501102,1.05955,40.4487,39.481,41.4025,1.01799
1.43,0.501605,1.0603,40.4437,39.4763,41.3969,1.01822
1.44,0.502026,1.06104,40.4387,39.4716,41.3913,1.01842
1.45,0.502542,1.06176,40.4337,39.4669,41.3856,1.0186
1.46,0.503024,1.0625,40.4286,39.4622,41.38,1.01882
1.47,0.503403,1.06325,40.4236,39.4575,41.3743,1.01903
1.48,0.503853,1.06397,40.4186,39.4528,41.3687,1.01921
1.49,0.50429,1.06474,40.4135,39.4481,41.363,1.01943
1.5,0.504691,1.06546,40.4085,39.4433,41.3573,1.01964
1.51,0.505058,1.06611,40.4034,39.4385,41.3517,1.01982
1.52,0.505396,1.06678,40.3984,39.4338,41.3461,1.02002
1.53,0.505873,1.06749,40.3933,39.429,41.3405,1.02024
1.54,0.506318,1.06817,40.3883,39.4243,41.3349,1.02043
1.55,0.506722,1.06887,40.3832,39.4195,41.3292,1.02062
1.56,0.507167,1.06959,40.3781,39.4147,41.3236,1.02084
1.57,0.507571,1.0703,40.3731,39.41,41.3179,1.02103
1.58,0.508,1.07102,40.368,39.4052,41.3122,1.02121
1.59,0.508355,1.07177,40.3629,39.4005,41.3065,1.02144
1.6,0.508722,1.07252,40.3578,39.3957,41.3008,1.02164
1.61,0.509029,1.07326,40.3527,39.391,41.2951,1.02181
1.62,0.509377,1.07403,40.3476,39.3862,41.2894,1.02204
1.63,0.509658,1.07476,40.3425,39.3814,41.2837,1.02224
1.64,0.509912,1.07544,40.3374,39.3766,41.278,1.02242
1.65,0.510277,1.07616,40.3324,39.3717,41.2723,1.02263
1.66,0.510598,1.0769,40.3272,39.3669,41.2665,1.02284
1.67,0.510944,1.07762,40.3221,39.3621,41.2608,1.02302
1.68,0.51131,1.07837,40.317,39.3573,41.2551,1.02322
1.69,0.511617,1.07912,40.3119,39.3525,41.2493,1.02343
1.7,0.51198,1.07984,40.3068,39.3477,41.2436,1.02362
1.71,0.512296,1.08061,40.3017,39.3429,41.2378,1.02381
1.72,0.51261,1.08135,40.2966,39.3381,41.232,1.02402
1.73,0.512951,1.08202,40.2914,39.3332,41.2264,1.02421
1.74,0.513255,1.08269,40.2863,39.3284,41.2207,1.02439
1.75,0.513563,1.0834,40.2812,39.3235,41.215,1.02461
1.76,0.513865,1.08405,40.276,39.3187,41.2093,1.0248
1.77,0.514033,1.0847,40.2709,39.3137,41.2036,1.02497
1.78,0.51433,1.0854,40.2658,39.3089,41.1979,1.02519
1.79,0.514669,1.08609,40.2606,39.304,41.1922,1.02538
1.8,0.515019,1.08677,40.2555,39.2991,41.1864,1.02554
1.81,0.515351,1.08752,40.2503,39.2942,41.1806,1.02576
1.82,0.515698,1.08825,40.2452,39.2893,41.1748,1.02596
1.83,0.515982,1.08895,40.24,39.2844,41.1691,1.02612
1.84,0.51616,1.08969,40.2348,39.2796,41.1633,1.02633
1.85,0.516478,1.09042,40.2297,39.2747,41.1575,1.02653
1.86,0.516795,1.09112,40.2245,39.2699,41.1518,1.0267
1.87,0.517013,1.09188,40.2193,39.265,41.146,1.0269
1.88,0.517192,1.09264,40.2142,39.2602,41.1402,1.0271
1.89,0.517358,1.09333,40.209,39.2553,41.1344,1.02727
1.9,0.517534,1.09403,40.2038,39.2503,41.1286,1.02746
1.91,0.517506,1.09476,40.1987,39.2454,41.1228,1.02766
1.92,0.517845,1.09551,40.1935,39.2405,41.117,1.02784
1.93,0.518126,1.09627,40.1883,39.2357,41.1111,1.02801
1.94,0.518422,1.09701,40.1831,39.2308,41.1054,1.02822
1.95,0.518646,1.09769,40.1779,39.2259,41.0996,1.0284
1.96,0.51889,1.09837,40.1728,39.221,41.0939,1.02857
1.97,0.519153,1.09908,40.1676,39.2161,41.0881,1.02877
1.98,0.519478,1.09976,40.1624,39.2112,41.0824,1.02895
1.99,0.51974,1.10043,40.1572,39.2063,41.0766,1.02911
2,0.519994,1.10115,40.152,39.2013,41.0709,1.02931
2.01,0.520219,1.10184,40.1468,39.1964,41.0651,1.02949
2.02,0.520428,1.10248,40.1416,39.1914,41.0593,1.02964
2.03,0.520672,1.10318,40.1364,39.1864,41.0535,1.02985
2.04,0.520919,1.10389,40.1312,39.1815,41.0477,1.03003
2.05,0.521187,1.10455,40.126,39.1765,41.0419,1.03018
2.06,0.521445,1.10526,40.1207,39.1715,41.0361,1.03038
2.07,0.521671,1.10596,40.1155,39.1666,41.0302,1.03057
2.08,0.52192,1.10662,40.1103,39.1616,41.0244,1.03072
2.09,0.522162,1.10733,40.1051,39.1567,41.0186,1.03091
2.1,0.522409,1.10804,40.0999,39.1517,41.0128,1.03109
2.11,0.522578,1.10871,40.0947,39.1468,41.007,1.03125
2.12,0.522691,1.10944,40.0894,39.1418,41.0012,1.03143
2.13,0.522948,1.11016,40.0842,39.1369,40.9954,1.03161
2.14,0.523105,1.11085,40.079,39.1319,40.9895,1.03176
2.15,0.523184,1.11152,40.0737,39.1269,40.9837,1.03194
2.16,0.523398,1.11215,40.0685,39.1219,40.9779,1.03212
2.17,0.52362,1.11277,40.0633,39.1169,40.9722,1.03227
2.18,0.523812,1.11342,40.058,39.1119,40.9664,1.03244
2.19,0.524051,1.11408,40.0528,39.1069,40.9607,1.03262
2.2,0.52433,1.1147,40.0476,39.1019,40.9549,1.03277
2.21,0.524556,1.11535,40.0423,39.0969,40.9492,1.03294
2.22,0.52481,1.11602,40.0371,39.092,40.9434,1.03312
2.23,0.525013,1.11666,40.0318,39.087,40.9376,1.03328
2.24,0.525231,1.11732,40.0266,39.0819,40.9318,1.03344
2.25,0.525404,1.11803,40.0213,39.0769,40.926,1.03362
2.26,0.525555,1.11867,40.0161,39.0719,40.9201,1.03377
2.27,0.525744,1.11929,40.0108,39.0668,40.9143,1.03393
2.28,0.525935,1.11994,40.0056,39.0618,40.9085,1.03411
2.29,0.526128,1.12057,40.0003,39.0567,40.9027,1.03427
2.3,0.526328,1.1212,39.995,39.0517,40.8969,1.03442
2.31,0.526566,1.12187,39.9898,39.0466,40.8911,1.03461
2.32,0.526763,1.12251,39.9845,39.0416,40.8852,1.03476
2.33,0.526976,1.12314,39.9792,39.0365,40.8794,1.03491
2.34,0.527113,1.12383,39.974,39.0315,40.8736,1.03509
2.35,0.527197,1.12447,39.9687,39.0265,40.8678,1.03525
2.36,0.527307,1.12514,39.9634,39.0214,40.8619,1.03539
2.37,0.527066,1.12583,39.9582,39.0164,40.8561,1.03558
2.38,0.527174,1.12648,39.9529,39.0115,40.8503,1.03573
2.39,0.527283,1.12708,39.9476,39.0064,40.8446,1.03587
2.4,0.527411,1.1277,39.9423,39.0013,40.8388,1.03605
2.41,0.527328,1.12829,39.9371,38.9962,40.833,1.0362
2.42,0.527509,1.12891,39.9318,38.9912,40.8272,1.03634
2.43,0.527731,1.12959,39.9265,38.9862,40.8214,1.03652
2.44,0.527938,1.13023,39.9212,38.9812,40.8156,1.03667
2.45,0.52812,1.13085,39.916,38.9761,40.8098,1.03681
2.46,0.528279,1.13152,39.9107,38.9711,40.804,1.03699
2.47,0.528473,1.13218,39.9054,38.9661,40.7982,1.03714
2.48,0.528608,1.1328,39.9001,38.961,40.7924,1.03727
2.49,0.528754,1.13346,39.8948,38.956,40.7866,1.03745
2.5,0.528886,1.13411,39.8895,38.9509,40.7807,1.0376
2.51,0.529018,1.13469,39.8843,38.9458,40.7749,1.03773
2.52,0.529168,1.13533,39.879,38.9407,40.7691,1.03791
2.53,0.529306,1.13593,39.8737,38.9356,40.7633,1.03807
2.54,0.529485,1.13651,39.8684,38.9305,40.7575,1.03819
2.55,0.529673,1.13716,39.8631,38.9254,40.7517,1.03837
2.56,0.529874,1.13779,39.8578,38.9203,40.7459,1.03852
2.57,0.529887,1.13838,39.8525,38.9153,40.74,1.03864
2.58,0.530026,1.13904,39.8472,38.9102,40.7342,1.03882
2.59,0.530111,1.13965,39.8419,38.9051,40.7284,1.03897
2.6,0.530228,1.1402,39.8366,38.9,40.7227,1.03909
2.61,0.530332,1.14082,39.8313,38.8949,40.7169,1.03927
2.62,0.530423,1.14142,39.826,38.8899,40.7112,1.03942
2.63,0.530517,1.14198,39.8207,38.8848,40.7054,1.03953
2.64,0.530626,1.14258,39.8154,38.8797,40.6996,1.03971
2.65,0.530826,1.14314,39.8101,38.8745,40.6938,1.03985
2.66,0.531013,1.14368,39.8048,38.8694,40.688,1.03997
2.67,0.531207,1.1443,39.7995,38.8643,40.6823,1.04014
2.68,0.531416,1.14492,39.7941,38.8592,40.6764,1.04029
2.69,0.531589,1.14551,39.7888,38.8541,40.6706,1.04041
2.7,0.531705,1.14612,39.7835,38.849,40.6648,1.04057
2.71,0.531846,1.14672,39.7782,38.8439,40.659,1.04072
2.72,0.532003,1.14729,39.7729,38.8388,40.6532,1.04084
2.73,0.532149,1.14789,39.7676,38.8337,40.6474,1.041
2.74,0.532264,1.1485,39.7622,38.8285,40.6416,1.04114
2.75,0.532364,1.14905,39.7569,38.8234,40.6358,1.04126
2.76,0.532491,1.14963,39.7516,38.8182,40.63,1.04142
2.77,0.532636,1.15019,39.7463,38.813,40.6242,1.04157
2.78,0.532789,1.15073,39.7409,38.8079,40.6183,1.04168
2.79,0.532956,1.15134,39.7356,38.8027,40.6125,1.04184
2.8,0.532861,1.15192,39.7303,38.7976,40.6067,1.04198
2.81,0.533083,1.15245,39.725,38.7924,40.6009,1.0421
2.82,0.53324,1.153,39.7196,38.7873,40.5951,1.04225
2.83,0.533397,1.15356,39.7143,38.7821,40.5894,1.0424
2.84,0.533551,1.15409,39.709,38.777,40.5836,1.04251
2.85,0.533603,1.15466,39.7036,38.7718,40.5778,1.04266
2.86,0.533663,1.15524,39.6983,38.7667,40.5721,1.0428
2.87,0.533881,1.15579,39.693,38.7616,40.5663,1.04291
2.88,0.533991,1.15635,39.6876,38.7565,40.5605,1.04305
2.89,0.534134,1.1569,39.6823,38.7513,40.5547,1.0432
2.9,0.534274,1.15742,39.6769,38.7461,40.5489,1.0433
2.91,0.534445,1.15799,39.6716,38.7409,40.5431,1.04344
2.92,0.5346,1.15857,39.6663,38.7358,40.5373,1.04358
2.93,0.534755,1.15911,39.6609,38.7307,40.5315,1.04369
2.94,0.534859,1.15966,39.6556,38.7255,40.5257,1.04383
2.95,0.534969,1.16022,39.6502,38.7204,40.52,1.04396
2.96,0.535121,1.16076,39.6449,38.7152,40.5142,1.04407
2.97,0.535232,1.1613,39.6395,38.7101,40.5084,1.0442
2.98,0.535323,1.16186,39.6342,38.7049,40.5026,1.04434
2.99,0.535427,1.16238,39.6288,38.6997,40.4968,1.04445
3,0.535658,1.16291,39.6235,38.6945,40.491,1.04458
3.01,0.535761,1.16344,39.6181,38.6893,40.4852,1.04471
3.02,0.53589,1.1639,39.6127,38.6841,40.4794,1.04482
3.03,0.536037,1.16439,39.6074,38.6789,40.4737,1.04495
3.04,0.536212,1.16489,39.602,38.6737,40.468,1.04508
3.05,0.53634,1.16535,39.5967,38.6685,40.4622,1.04519
3.06,0.536466,1.16583,39.5913,38.6633,40.4565,1.04531
3.07,0.536574,1.16634,39.5859,38.6581,40.4508,1.04545
3.08,0.536679,1.16682,39.5806,38.6529,40.445,1.04554
3.09,0.536742,1.16733,39.5752,38.6477,40.4393,1.04567
3.1,0.536835,1.16786,39.5698,38.6425,40.4335,1.0458
3.11,0.536938,1.16837,39.5645,38.6374,40.4277,1.0459
3.12,0.537047,1.1689,39.5591,38.6322,40.4219,1.04603
3.13,0.537189,1.16938,39.5537,38.6269,40.4162,1.04616
3.14,0.537296,1.16983,39.5484,38.6217,40.4104,1.04625
3.15,0.537411,1.17034,39.543,38.6164,40.4046,1.04638
3.16,0.537563,1.17085,39.5376,38.6113,40.3988,1.0465
3.17,0.537688,1.17134,39.5322,38.6061,40.3931,1.0466
3.18,0.53776,1.17185,39.5269,38.6008,40.3873,1.04672
3.19,0.537845,1.17235,39.5215,38.5956,40.3815,1.04685
3.2,0.53796,1.17283,39.5161,38.5904,40.3757,1.04694
3.21,0.538037,1.17334,39.5107,38.5852,40.37,1.04707
3.22,0.538114,1.17386,39.5053,38.58,40.3642,1.04719
3.23,0.538225,1.17433,39.5,38.5748,40.3584,1.04727
3.24,0.538346,1.1748,39.4946,38.5695,40.3526,1.0474
3.25,0.538389,1.17523,39.4892,38.5642,40.3469,1.04752
3.26,0.538488,1.17563,39.4838,38.5589,40.3411,1.04761
3.27,0.538696,1.17609,39.4784,38.5537,40.3354,1.04774
3.28,0.538845,1.17654,39.473,38.5484,40.3297,1.04785
3.29,0.539001,1.17696,39.4677,38.5432,40.3239,1.04793
3.3,0.539038,1.17743,39.4623,38.5379,40.3182,1.04806
3.31,0.539128,1.1779,39.4569,38.5327,40.3124,1.04817
3.32,0.539233,1.17833,39.4515,38.5275,40.3067,1.04825
3.33,0.539313,1.17885,39.4461,38.5222,40.3009,1.04839
3.34,0.539385,1.17935,39.4407,38.517,40.2951,1.04849
3.35,0.539472,1.17981,39.4353,38.5118,40.2893,1.04857
3.36,0.539545,1.18031,39.4299,38.5066,40.2836,1.04871
3.37,0.539599,1.18074,39.4245,38.5013,40.2778,1.04881
3.38,0.53957,1.18115,39.4191,38.496,40.2721,1.04889
3.39,0.539708,1.18165,39.4137,38.4908,40.2663,1.04903
3.4,0.539836,1.18213,39.4083,38.4856,40.2606,1.04913
3.41,0.53991,1.18258,39.4029,38.4803,40.2548,1.04921
3.42,0.539951,1.18308,39.3975,38.4751,40.249,1.04935
3.43,0.540001,1.18354,39.3921,38.4699,40.2433,1.04944
3.44,0.540048,1.18401,39.3867,38.4646,40.2375,1.04953
3.45,0.540115,1.18449,39.3813,38.4594,40.2317,1.04966
3.46,0.540205,1.18492,39.3759,38.4542,40.226,1.04975
3.47,0.540317,1.18533,39.3705,38.4489,40.2203,1.04985
3.48,0.540439,1.18575,39.3651,38.4436,40.2146,1.04997
3.49,0.54054,1.18612,39.3597,38.4383,40.2089,1.05006
3.5,0.540718,1.18651,39.3543,38.433,40.2032,1.05016
3.51,0.540875,1.18694,39.3489,38.4277,40.1974,1.05028
3.52,0.541009,1.18734,39.3435,38.4225,40.1917,1.05037
3.53,0.541116,1.18777,39.3381,38.4172,40.186,1.05047
3.54,0.541202,1.18821,39.3327,38.4119,40.1803,1.05059
3.55,0.541298,1.18864,39.3273,38.4066,40.1745,1.05067
3.56,0.541386,1.18909,39.3219,38.4014,40.1687,1.05078
3.57,0.54148,1.18954,39.3165,38.3961,40.163,1.05089
3.58,0.541577,1.18997,39.311,38.3909,40.1572,1.05097
3.59,0.541652,1.19043,39.3056,38.3856,40.1515,1.05108
3.6,0.541758,1.19085,39.3002,38.3803,40.1458,1.05119
3.61,0.541867,1.19123,39.2948,38.375,40.14,1.05127
3.62,0.541995,1.19165,39.2894,38.3697,40.1343,1.05138
3.63,0.542122,1.19209,39.284,38.3644,40.1285,1.05149
3.64,0.54222,1.1925,39.2785,38.3591,40.1228,1.05156
3.65,0.54228,1.19296,39.2731,38.3538,40.117,1.05168
3.66,0.542305,1.19341,39.2677,38.3486,40.1112,1.05178
3.67,0.542381,1.1938,39.2623,38.3433,40.1055,1.05185
3.68,0.542388,1.19422,39.2568,38.338,40.0997,1.05197
3.69,0.542493,1.19462,39.2514,38.3327,40.094,1.05207
3.7,0.542283,1.19499,39.246,38.3274,40.0883,1.05214
3.71,0.542447,1.1954,39.2406,38.3221,40.0826,1.05226
3.72,0.542603,1.19577,39.2352,38.3167,40.0769,1.05236
3.73,0.542762,1.19609,39.2297,38.3114,40.0712,1.05243
3.74,0.542931,1.1965,39.2243,38.306,40.0654,1.05256
