time,velocity,ratio,centerX,Xmax,Xmin,Ymax
0,0,1,2.75,1.75,3.75,1
0.01,0.0194379,0.99999,2.74991,1.74989,3.74993,1.00001
0.02,0.0387243,1,2.74964,1.74962,3.74964,1.00001
0.03,0.0578732,1.00002,2.74917,1.74916,3.74916,1.00002
0.04,0.0768706,1.00005,2.74852,1.74851,3.74847,1.00003
0.05,0.0957145,1.00008,2.74768,1.74768,3.74759,1.00003
0.06,0.114425,1.00011,2.74664,1.74666,3.74651,1.00004
0.07,0.132993,1.00015,2.74543,1.74546,3.74525,1.00004
0.08,0.151417,1.00018,2.74402,1.74408,3.74379,1.00004
0.09,0.1697,1.00023,2.74244,1.74252,3.74215,1.00004
0.1,0.187849,1.00031,2.74067,1.74079,3.74031,1.00007
0.11,0.205863,1.0004,2.73872,1.73889,3.7383,1.0001
0.12,0.223744,1.0005,2.73659,1.73683,3.7361,1.00013
0.13,0.24146,1.0006,2.73428,1.7346,3.73374,1.00016
0.14,0.259053,1.00069,2.7318,1.73221,3.73122,1.0002
0.15,0.276503,1.0008,2.72914,1.72965,3.72853,1.00024
0.16,0.293813,1.00091,2.7263,1.72692,3.72564,1.00027
0.17,0.310988,1.00109,2.7233,1.72405,3.72256,1.00035
0.18,0.328029,1.00132,2.72012,1.72103,3.71925,1.00043
0.19,0.344917,1.00157,2.71677,1.71786,3.71575,1.00051
0.2,0.36169,1.00184,2.71326,1.71455,3.71208,1.0006
0.21,0.378288,1.00214,2.70957,1.71109,3.7082,1.00069
0.22,0.394736,1.00254,2.70572,1.7075,3.70411,1.00084
0.23,0.411027,1.00298,2.70171,1.70377,3.69979,1.00098
0.24,0.427168,1.00345,2.69754,1.69992,3.69527,1.00112
0.25,0.44314,1.00396,2.6932,1.69592,3.69057,1.00128
0.26,0.458956,1.00456,2.68871,1.69177,3.68565,1.00148
0.27,0.474245,1.00521,2.68406,1.6875,3.68049,1.00169
0.28,0.489471,1.00592,2.67925,1.68313,3.67512,1.00189
0.29,0.504729,1.00674,2.6743,1.67864,3.66955,1.00216
0.3,0.51985,1.0076,2.66919,1.67405,3.6638,1.00244
0.31,0.53479,1.00852,2.66393,1.66935,3.65783,1.00272
0.32,0.549573,1.00956,2.65853,1.66452,3.65165,1.00306
0.33,0.564136,1.01065,2.65297,1.65959,3.64528,1.00341
0.34,0.578519,1.0118,2.64727,1.65457,3.63867,1.00376
0.35,0.592674,1.0131,2.64143,1.64945,3.63185,1.00419
0.36,0.606622,1.01447,2.63545,1.64422,3.62479,1.00461
0.37,0.620191,1.01594,2.62933,1.63892,3.61751,1.00506
0.38,0.63371,1.01755,2.62307,1.63352,3.60997,1.00557
0.39,0.647007,1.01922,2.61668,1.628,3.6022,1.00607
0.4,0.660039,1.02103,2.61016,1.62238,3.59419,1.00664
0.41,0.672324,1.02295,2.60351,1.61668,3.58594,1.00722
0.42,0.684968,1.02499,2.59674,1.61094,3.57743,1.00782
0.43,0.697289,1.02719,2.58984,1.60512,3.56869,1.00848
0.44,0.709306,1.02948,2.58282,1.59921,3.55968,1.00913
0.45,0.720969,1.03193,2.57568,1.59323,3.55044,1.00985
0.46,0.732507,1.03452,2.56843,1.58719,3.54092,1.01059
0.47,0.743527,1.03724,2.56106,1.58108,3.53115,1.01134
0.48,0.754427,1.04015,2.55358,1.57491,3.5211,1.01216
0.49,0.764364,1.04314,2.54599,1.56865,3.51077,1.01295
0.5,0.774605,1.04636,2.53831,1.56232,3.50017,1.01384
0.51,0.784502,1.04968,2.53053,1.55593,3.48931,1.01472
0.52,0.794068,1.05323,2.52264,1.5495,3.47816,1.01566
0.53,0.80341,1.05688,2.51467,1.54302,3.46676,1.01659
0.54,0.812357,1.06073,2.5066,1.53647,3.45507,1.01756
0.55,0.821069,1.06479,2.49844,1.52988,3.44308,1.01858
0.56,0.829554,1.06902,2.4902,1.52324,3.43079,1.01961
0.57,0.837656,1.07347,2.48187,1.51655,3.41823,1.0207
0.58,0.845489,1.07809,2.47347,1.50983,3.40537,1.02179
0.59,0.853016,1.08293,2.46498,1.50302,3.39224,1.02295
0.6,0.860142,1.08792,2.45643,1.49614,3.37878,1.02408
0.61,0.867057,1.09318,2.4478,1.48923,3.36504,1.02531
0.62,0.873504,1.09863,2.4391,1.48232,3.35101,1.0265
0.63,0.87968,1.10433,2.43035,1.47537,3.33672,1.02777
0.64,0.885711,1.11024,2.42153,1.46841,3.32211,1.02902
0.65,0.891314,1.11639,2.41265,1.46141,3.30723,1.03032
0.66,0.896619,1.12277,2.40372,1.4544,3.29204,1.03163
0.67,0.901617,1.12937,2.39474,1.44736,3.27662,1.03295
0.68,0.906281,1.13621,2.3857,1.44027,3.26089,1.0343
0.69,0.910742,1.14328,2.37663,1.43314,3.2449,1.03568
0.7,0.914851,1.15063,2.3675,1.426,3.22862,1.03708
0.71,0.918714,1.1582,2.35834,1.41885,3.21214,1.03849
0.72,0.922296,1.16604,2.34915,1.41168,3.1954,1.03994
0.73,0.925477,1.17408,2.33991,1.40448,3.17844,1.04138
0.74,0.928499,1.18243,2.33065,1.39727,3.16122,1.04288
0.75,0.931227,1.19097,2.32136,1.39005,3.14381,1.04434
0.76,0.933629,1.19981,2.31204,1.38282,3.1262,1.04587
0.77,0.935987,1.20858,2.3027,1.37552,3.1087,1.04734
0.78,0.937906,1.2173,2.29334,1.3682,3.09151,1.04889
0.79,0.939633,1.2258,2.28395,1.36089,3.07472,1.0504
0.8,0.941212,1.23427,2.27456,1.3536,3.05824,1.05199
0.81,0.942539,1.24251,2.26514,1.34629,3.04211,1.05354
0.82,0.943715,1.2507,2.25572,1.33897,3.02629,1.05516
0.83,0.944245,1.2587,2.24628,1.33165,3.01075,1.05675
0.84,0.944979,1.26662,2.23684,1.32434,2.99552,1.05838
0.85,0.945528,1.27437,2.22739,1.31698,2.98054,1.06
0.86,0.945972,1.28202,2.21794,1.3096,2.9658,1.06164
0.87,0.946287,1.28951,2.20849,1.30221,2.95131,1.06327
0.88,0.946426,1.29692,2.19903,1.29484,2.93704,1.0649
0.89,0.946383,1.30421,2.18957,1.28745,2.92301,1.06655
0.9,0.946239,1.3114,2.18011,1.28008,2.90918,1.0682
0.91,0.945995,1.3185,2.17066,1.27269,2.89557,1.06988
0.92,0.945668,1.32549,2.1612,1.26532,2.88213,1.07154
0.93,0.945185,1.33245,2.15176,1.25793,2.86885,1.07324
0.94,0.94449,1.33927,2.14231,1.25051,2.8557,1.0749
0.95,0.9438,1.34599,2.13288,1.24305,2.84279,1.07662
0.96,0.943025,1.35259,2.12345,1.23564,2.83003,1.07828
0.97,0.942164,1.35922,2.11403,1.22824,2.81737,1.07999
0.98,0.941242,1.36568,2.10462,1.22085,2.80489,1.08165
0.99,0.940272,1.37218,2.09522,1.21345,2.79253,1.08338
1,0.939228,1.37856,2.08582,1.20607,2.78027,1.08507
1.01,0.937997,1.3849,2.07644,1.1987,2.76821,1.08681
1.02,0.93661,1.3912,2.06707,1.1913,2.75616,1.08852
1.03,0.935231,1.39736,2.05772,1.18389,2.74434,1.09025
1.04,0.933908,1.40356,2.04838,1.17649,2.7325,1.09197
1.05,0.932516,1.40959,2.03905,1.16911,2.72091,1.0937
1.06,0.931083,1.41567,2.02974,1.16174,2.70929,1.09541
1.07,0.929683,1.42158,2.02044,1.15437,2.6979,1.09713
1.08,0.928233,1.42759,2.01116,1.147,2.68647,1.09887
1.09,0.926639,1.43345,2.00189,1.13966,2.67523,1.10058
1.1,0.925124,1.43938,1.99264,1.13231,2.664,1.10234
1.11,0.923536,1.44511,1.9834,1.12492,2.6529,1.10405
1.12,0.922003,1.45087,1.97418,1.11754,2.6419,1.10582
1.13,0.920432,1.45659,1.96497,1.1102,2.6309,1.10753
1.14,0.918796,1.4623,1.95578,1.10287,2.62007,1.1093
1.15,0.917166,1.46794,1.9466,1.09554,2.60922,1.111
1.16,0.915389,1.47356,1.93745,1.08822,2.59852,1.11276
1.17,0.913744,1.47911,1.92831,1.0809,2.58787,1.11449
1.18,0.912134,1.4848,1.91918,1.07361,2.5772,1.11626
1.19,0.910412,1.49024,1.91008,1.0663,2.56674,1.11801
1.2,0.908652,1.49575,1.90099,1.05897,2.55625,1.11978
1.21,0.906795,1.50128,1.89192,1.05166,2.54579,1.12155
1.22,0.905066,1.50668,1.88286,1.04439,2.5355,1.12331
1.23,0.903322,1.51215,1.87383,1.03711,2.52518,1.1251
1.24,0.901587,1.51756,1.86481,1.02986,2.51491,1.12683
1.25,0.899844,1.52291,1.85581,1.0226,2.50478,1.12861
1.26,0.897974,1.5283,1.84682,1.01538,2.4946,1.13035
1.27,0.89621,1.53372,1.83786,1.00817,2.48452,1.13215
1.28,0.894399,1.53895,1.82891,1.00092,2.47451,1.13389
1.29,0.892478,1.54431,1.81998,0.993669,2.46449,1.1357
1.3,0.890746,1.54965,1.81107,0.986463,2.45448,1.13746
1.31,0.888718,1.5549,1.80218,0.979286,2.44466,1.13925
1.32,0.886995,1.56023,1.79331,0.972127,2.43476,1.14102
1.33,0.88524,1.56561,1.78445,0.964982,2.42485,1.14279
1.34,0.883436,1.57083,1.77562,0.957855,2.41514,1.14457
1.35,0.881664,1.57613,1.76679,0.950754,2.4054,1.14635
1.36,0.879883,1.58147,1.75799,0.943651,2.39565,1.14815
1.37,0.877977,1.58671,1.74921,0.936534,2.38599,1.14993
1.38,0.876216,1.59199,1.74044,0.929433,2.37636,1.15175
1.39,0.874414,1.59723,1.7317,0.922365,2.36676,1.15351
1.4,0.872558,1.60269,1.72297,0.91532,2.35708,1.15535
1.41,0.870753,1.60784,1.71426,0.908284,2.34761,1.1571
1.42,0.868895,1.61312,1.70557,0.901273,2.33815,1.15892
1.43,0.866985,1.61848,1.69689,0.894279,2.32859,1.1607
1.44,0.8651,1.62386,1.68824,0.887324,2.31913,1.16253
1.45,0.863042,1.62909,1.6796,0.880356,2.30978,1.16433
1.46,0.861119,1.63441,1.67099,0.873377,2.30038,1.16615
1.47,0.859047,1.63979,1.66239,0.866424,2.29097,1.16797
1.48,0.857112,1.64507,1.65382,0.859521,2.28168,1.16978
1.49,0.855177,1.6504,1.64526,0.852641,2.27244,1.17162
1.5,0.853274,1.65574,1.63673,0.845783,2.26314,1.17339
1.51,0.85141,1.66127,1.62821,0.838947,2.25382,1.17524
1.52,0.849489,1.66655,1.61971,0.832139,2.24468,1.17703
1.53,0.847452,1.67206,1.61123,0.82536,2.23549,1.17892
1.54,0.8455,1.67747,1.60277,0.818583,2.22634,1.18074
1.55,0.843598,1.68306,1.59433,0.8118,2.21712,1.18261
1.56,0.841718,1.68842,1.58591,0.805041,2.20808,1.18446
1.57,0.839749,1.69388,1.57751,0.798319,2.19904,1.18633
1.58,0.837733,1.6995,1.56913,0.791632,2.18991,1.18819
1.59,0.835758,1.70511,1.56077,0.784959,2.1808,1.19003
1.6,0.833872,1.71058,1.55242,0.778318,2.17189,1.19191
1.61,0.831863,1.71616,1.5441,0.771701,2.16288,1.19375
1.62,0.829906,1.72192,1.5358,0.765128,2.15388,1.19566
1.63,0.827833,1.72768,1.52751,0.75857,2.14483,1.19751
1.64,0.825817,1.73333,1.51925,0.752006,2.13597,1.19943
1.65,0.823798,1.73899,1.51101,0.745438,2.12704,1.2013
1.66,0.821676,1.74476,1.50279,0.738927,2.11815,1.20321
1.67,0.819563,1.75071,1.49459,0.732467,2.10915,1.20508
1.68,0.817447,1.75648,1.48641,0.726039,2.10035,1.20697
1.69,0.815394,1.76229,1.47825,0.719643,2.0916,1.2089
1.7,0.813359,1.76827,1.47011,0.713286,2.08275,1.21078
1.71,0.811185,1.77441,1.46199,0.706963,2.07388,1.21274
1.72,0.809012,1.78052,1.4539,0.700684,2.06504,1.21463
1.73,0.806835,1.78656,1.44582,0.694412,2.05636,1.21661
1.74,0.804747,1.79268,1.43777,0.688154,2.0476,1.21853
1.75,0.802554,1.79888,1.42974,0.68192,2.03884,1.22047
1.76,0.800298,1.80517,1.42173,0.675741,2.03008,1.22241
1.77,0.798157,1.81139,1.41374,0.669603,2.02144,1.22436
1.78,0.79599,1.8177,1.40578,0.663495,2.01282,1.22633
1.79,0.793807,1.82416,1.39783,0.657421,2.0041,1.22828
1.8,0.791519,1.8308,1.38991,0.651391,1.99538,1.23029
1.81,0.78921,1.83729,1.38201,0.645397,1.98677,1.23224
1.82,0.78694,1.84385,1.37414,0.639456,1.97825,1.23426
1.83,0.784672,1.85051,1.36629,0.633536,1.96963,1.23622
1.84,0.782371,1.85724,1.35846,0.627624,1.96103,1.23823
1.85,0.779877,1.86398,1.35065,0.621723,1.95247,1.24024
1.86,0.777464,1.87078,1.34287,0.615883,1.94394,1.24226
1.87,0.775107,1.87768,1.33511,0.610102,1.93547,1.24432
1.88,0.772713,1.88477,1.32738,0.604369,1.92689,1.24633
1.89,0.770345,1.89206,1.31967,0.59867,1.91831,1.24842
1.9,0.767791,1.89909,1.31198,0.593022,1.90991,1.25045
1.91,0.765338,1.90621,1.30432,0.587411,1.90157,1.25253
1.92,0.762925,1.91363,1.29668,0.581846,1.89306,1.25459
1.93,0.760495,1.92108,1.28907,0.576325,1.88462,1.25667
1.94,0.757836,1.92868,1.28148,0.57083,1.87615,1.25877
1.95,0.755328,1.93611,1.27393,0.565356,1.8678,1.26084
1.96,0.752842,1.94372,1.26639,0.559914,1.85947,1.26298
1.97,0.750263,1.95146,1.25888,0.554525,1.85106,1.26507
1.98,0.747698,1.95949,1.25139,0.549195,1.8426,1.26721
1.99,0.745073,1.96732,1.24393,0.54391,1.83432,1.26932
2,0.742497,1.9752,1.2365,0.538664,1.82609,1.27146
2.01,0.739751,1.98344,1.22909,0.533462,1.81773,1.27363
2.02,0.736983,1.9917,1.22172,0.528313,1.8094,1.27577
2.03,0.73428,2.00025,1.21436,0.523206,1.80103,1.27798
2.04,0.731426,2.00846,1.20704,0.518156,1.7929,1.28014
2.05,0.728691,2.01706,1.19974,0.513162,1.78466,1.28235
2.06,0.725984,2.02567,1.19248,0.508198,1.77645,1.28453
2.07,0.723234,2.03458,1.18523,0.50325,1.76811,1.28673
2.08,0.720307,2.0433,1.17802,0.498325,1.75998,1.28897
2.09,0.717472,2.0521,1.17084,0.493461,1.75185,1.29117
2.1,0.714569,2.06119,1.16368,0.488671,1.74373,1.29346
2.11,0.711688,2.07052,1.15655,0.48394,1.7355,1.29569
2.12,0.708704,2.07996,1.14946,0.479255,1.72732,1.29796
2.13,0.705808,2.08907,1.14239,0.474613,1.7194,1.30022
2.14,0.702637,2.09865,1.13535,0.470029,1.71129,1.30249
2.15,0.699565,2.10837,1.12835,0.465494,1.70325,1.30482
2.16,0.69657,2.11835,1.12137,0.461008,1.69508,1.30711
2.17,0.693411,2.1284,1.11442,0.456575,1.68706,1.30948
2.18,0.690373,2.13853,1.10751,0.452201,1.67905,1.31182
2.19,0.687204,2.14861,1.10063,0.447859,1.67113,1.31417
2.2,0.684016,2.1591,1.09377,0.443546,1.66308,1.31654
2.21,0.680665,2.16963,1.08696,0.439264,1.65503,1.31888
2.22,0.677542,2.18025,1.08017,0.435026,1.6471,1.32132
2.23,0.674446,2.19072,1.07341,0.430848,1.63931,1.3237
2.24,0.67119,2.20172,1.06669,0.426732,1.63136,1.32613
2.25,0.667913,2.21283,1.06,0.422669,1.62345,1.32856
2.26,0.664746,2.22422,1.05334,0.418659,1.61544,1.33095
2.27,0.661519,2.23539,1.04671,0.414691,1.60772,1.33344
2.28,0.658276,2.24688,1.04012,0.410775,1.59988,1.33589
2.29,0.654994,2.25851,1.03356,0.406908,1.5921,1.33839
2.3,0.65158,2.27056,1.02703,0.40309,1.5842,1.34089
2.31,0.648274,2.28253,1.02053,0.399322,1.57642,1.34338
2.32,0.644697,2.29469,1.01407,0.395611,1.56869,1.34592
2.33,0.641375,2.30685,1.00764,0.391956,1.56102,1.34843
2.34,0.637965,2.31958,1.00125,0.388356,1.55322,1.351
2.35,0.634496,2.33241,0.994893,0.384787,1.54546,1.35358
2.36,0.63106,2.34518,0.988569,0.381247,1.53778,1.35613
2.37,0.627628,2.3579,0.982279,0.377732,1.53026,1.35877
2.38,0.624023,2.37099,0.976026,0.374249,1.52259,1.36135
2.39,0.620558,2.38433,0.969807,0.370835,1.51495,1.36398
2.4,0.61702,2.39813,0.963623,0.367491,1.50724,1.36663
2.41,0.613518,2.41154,0.957473,0.3642,1.49979,1.36926
2.42,0.610051,2.42565,0.951361,0.360961,1.4922,1.372
2.43,0.606394,2.43968,0.945281,0.357768,1.48471,1.37469
2.44,0.602605,2.45412,0.939242,0.354621,1.47713,1.37739
2.45,0.598987,2.46862,0.933236,0.351518,1.46966,1.38013
2.46,0.595408,2.48323,0.92727,0.348461,1.4622,1.38283
2.47,0.591903,2.49806,0.921335,0.345447,1.45481,1.38563
2.48,0.588329,2.51315,0.91544,0.34248,1.44739,1.3884
2.49,0.584736,2.52865,0.909576,0.339553,1.43987,1.39116
2.5,0.581083,2.54413,0.903753,0.336672,1.43251,1.39398
2.51,0.577439,2.55963,0.897962,0.333835,1.42523,1.39678
2.52,0.573801,2.57546,0.892211,0.331047,1.41794,1.39962
2.53,0.570074,2.59179,0.886494,0.328305,1.41056,1.40249
2.54,0.566297,2.60812,0.880817,0.325604,1.40326,1.40533
2.55,0.562643,2.62463,0.875176,0.322929,1.39602,1.40823
2.56,0.558974,2.64099,0.869571,0.320284,1.38892,1.41112
2.57,0.555366,2.65792,0.864003,0.317671,1.38167,1.41401
2.58,0.551492,2.6752,0.858471,0.315094,1.37444,1.41699
2.59,0.547722,2.69266,0.852979,0.312553,1.36722,1.41992
2.6,0.543973,2.70977,0.847522,0.310054,1.36023,1.42288
2.61,0.54026,2.72752,0.842107,0.30761,1.35316,1.42587
2.62,0.536428,2.74552,0.836724,0.305212,1.34606,1.42884
2.63,0.532651,2.76379,0.831384,0.302855,1.33903,1.43189
2.64,0.529004,2.78249,0.826076,0.300539,1.33195,1.43495
2.65,0.525113,2.80075,0.82081,0.298262,1.32511,1.43797
2.66,0.521414,2.81984,0.81558,0.296025,1.31813,1.44108
2.67,0.51773,2.83893,0.810388,0.293816,1.31122,1.44417
2.68,0.514018,2.85851,0.805232,0.291642,1.30422,1.44724
2.69,0.510268,2.878,0.800112,0.289502,1.29744,1.45042
2.7,0.506495,2.89789,0.795034,0.2874,1.29058,1.45355
2.71,0.502753,2.9178,0.789988,0.285334,1.2838,1.45666
2.72,0.498996,2.93819,0.784985,0.283304,1.27703,1.45987
2.73,0.495164,2.95909,0.780016,0.281311,1.27016,1.46305
2.74,0.491386,2.9797,0.775087,0.279353,1.26351,1.46625
2.75,0.487624,3.00079,0.770196,0.277425,1.25684,1.46951
2.76,0.483962,3.0219,0.765339,0.275531,1.25022,1.47271
2.77,0.480149,3.04361,0.760523,0.27367,1.24354,1.47595
2.78,0.476364,3.06583,0.755741,0.271844,1.23684,1.47926
2.79,0.4726,3.08759,0.751001,0.270049,1.23036,1.48253
2.8,0.468892,3.10975,0.746294,0.268288,1.22387,1.48581
2.81,0.465108,3.13215,0.741628,0.26656,1.21744,1.48915
2.82,0.461391,3.15513,0.736999,0.264863,1.21092,1.49246
2.83,0.457693,3.17829,0.732404,0.263191,1.20447,1.49583
2.84,0.454004,3.20153,0.727851,0.261541,1.19812,1.49925
2.85,0.450424,3.22489,0.72333,0.259914,1.19179,1.5026
2.86,0.446783,3.24863,0.718847,0.258311,1.18547,1.506
2.87,0.443089,3.27298,0.7144,0.256734,1.17911,1.50946
2.88,0.439413,3.29714,0.709987,0.255176,1.17286,1.51287
2.89,0.435709,3.32143,0.705617,0.253636,1.16668,1.5163
2.9,0.432134,3.34606,0.701278,0.252119,1.16052,1.51977
2.91,0.428466,3.37085,0.696979,0.250625,1.15439,1.52322
2.92,0.424939,3.39631,0.692715,0.249153,1.14819,1.5267
2.93,0.421364,3.42184,0.688484,0.247732,1.14213,1.53024
2.94,0.417797,3.44744,0.684294,0.246351,1.13612,1.53372
2.95,0.414106,3.47346,0.680135,0.245,1.13011,1.5372
2.96,0.410588,3.50007,0.676013,0.243678,1.12411,1.54079
2.97,0.407087,3.527,0.671929,0.242383,1.1181,1.54433
2.98,0.403613,3.55378,0.667875,0.241114,1.1122,1.54783
2.99,0.400086,3.58072,0.663861,0.239868,1.10641,1.55143
3,0.396571,3.60811,0.659879,0.238645,1.1006,1.55501
3.01,0.393199,3.63573,0.65593,0.237446,1.0948,1.55856
3.02,0.389709,3.66402,0.65202,0.236272,1.08901,1.56223
3.03,0.386363,3.69215,0.648142,0.235121,1.08332,1.56585
3.04,0.383015,3.72033,0.644297,0.233994,1.0777,1.56942
3.05,0.379572,3.74929,0.640489,0.23289,1.07203,1.5731
3.06,0.376276,3.77871,0.636709,0.231807,1.06636,1.57677
3.07,0.372958,3.80808,0.632967,0.230745,1.06075,1.58037
3.08,0.369589,3.83743,0.629256,0.229703,1.05526,1.58401
3.09,0.366257,3.86721,0.625576,0.228681,1.0498,1.58771
3.1,0.362917,3.8974,0.621933,0.22768,1.04431,1.59137
3.11,0.359749,3.92782,0.618322,0.226699,1.03885,1.59499
3.12,0.356609,3.95889,0.614739,0.225738,1.03339,1.59871
3.13,0.35334,3.98956,0.611193,0.224798,1.02809,1.60239
3.14,0.350239,4.0204,0.607676,0.223878,1.02281,1.60602
3.15,0.34709,4.05192,0.604189,0.222978,1.01755,1.60977
3.16,0.343992,4.0837,0.600738,0.222098,1.01229,1.61346
3.17,0.34085,4.11595,0.597316,0.221237,1.00702,1.61712
3.18,0.337761,4.14796,0.593922,0.220395,1.00191,1.62085
3.19,0.334669,4.1807,0.590566,0.219572,0.996765,1.62461
3.2,0.331658,4.21357,0.587237,0.218767,0.991639,1.62827
3.21,0.328717,4.24704,0.583935,0.217979,0.986491,1.63195
3.22,0.325647,4.28089,0.580668,0.217208,0.981408,1.63573
3.23,0.322678,4.31411,0.577428,0.216454,0.976492,1.63944
3.24,0.31979,4.34729,0.574214,0.215716,0.971621,1.64307
3.25,0.316917,4.38135,0.571033,0.214992,0.966732,1.64682
3.26,0.313987,4.41588,0.56788,0.214284,0.961839,1.65056
3.27,0.311067,4.45085,0.564753,0.213573,0.956908,1.65424
3.28,0.308199,4.48521,0.561657,0.212842,0.952113,1.65789
3.29,0.305432,4.51995,0.558592,0.212108,0.947354,1.66164
3.3,0.302649,4.5548,0.555549,0.211372,0.942612,1.66533
3.31,0.29993,4.59009,0.552536,0.210634,0.937834,1.66895
3.32,0.29723,4.62566,0.549554,0.209897,0.933115,1.67268
3.33,0.294551,4.66121,0.546595,0.20916,0.928449,1.67638
3.34,0.291972,4.69647,0.543661,0.208422,0.923864,1.68002
3.35,0.289315,4.732,0.540759,0.207684,0.919294,1.68367
3.36,0.286673,4.76786,0.537881,0.206947,0.914777,1.68742
3.37,0.284141,4.80391,0.535028,0.206209,0.910245,1.69106
3.38,0.281584,4.83959,0.532201,0.205473,0.9058,1.69465
3.39,0.279003,4.87552,0.529404,0.204737,0.901414,1.69833
3.4,0.276514,4.91162,0.526629,0.204001,0.897057,1.70201
3.41,0.273977,4.94828,0.523878,0.203265,0.892638,1.70561
3.42,0.271523,4.98489,0.521156,0.20253,0.888252,1.70912
3.43,0.269084,5.02219,0.518454,0.201793,0.883896,1.71283
3.44,0.266641,5.0591,0.515773,0.201055,0.879619,1.71646
3.45,0.26424,5.09607,0.513117,0.200317,0.875354,1.72002
3.46,0.261835,5.13294,0.51049,0.199578,0.871131,1.72352
3.47,0.259517,5.17047,0.507882,0.198838,0.866929,1.72717
3.48,0.257177,5.20851,0.505295,0.1981,0.862683,1.73074
3.49,0.254884,5.24628,0.502735,0.197361,0.858492,1.73424
3.5,0.252592,5.28329,0.500199,0.196623,0.854444,1.73773
3.51,0.25035,5.32025,0.497683,0.195886,0.850485,1.74131
3.52,0.248051,5.35772,0.495187,0.195147,0.846478,1.74482
3.53,0.245854,5.39527,0.49272,0.194409,0.842479,1.74826
3.54,0.243641,5.43313,0.490274,0.193672,0.838517,1.75176
3.55,0.241459,5.47129,0.487847,0.192937,0.834572,1.75528
3.56,0.239339,5.50913,0.485441,0.192203,0.830686,1.75874
3.57,0.23722,5.54714,0.483062,0.19147,0.826798,1.76212
3.58,0.2351,5.58519,0.480703,0.190738,0.822977,1.76559
3.59,0.233046,5.62369,0.478364,0.190008,0.819145,1.76904
3.6,0.231011,5.66267,0.476043,0.189282,0.815282,1.77242
3.61,0.228954,5.70134,0.473747,0.188557,0.811472,1.77572
3.62,0.226931,5.74034,0.471473,0.18783,0.807697,1.77913
3.63,0.224955,5.7787,0.469216,0.187106,0.804034,1.78252
3.64,0.222931,5.81758,0.466975,0.186389,0.800326,1.78581
3.65,0.220978,5.85639,0.464755,0.185667,0.796637,1.78904
3.66,0.218982,5.89518,0.462558,0.184951,0.793026,1.79235
3.67,0.217064,5.93437,0.460377,0.18424,0.789422,1.79569
