time,velocity,ratio,centerX,Xmax,Xmin,Ymax
0,0,1,6,5,7,1
0.01,0.0197592,1,5.9999,4.9999,6.9999,1
0.02,0.0393946,1,5.99961,4.99961,6.99961,1
0.03,0.058874,1.00001,5.99912,4.99913,6.9991,0.999998
0.04,0.0781435,1.00003,5.99844,4.99846,6.99841,0.999997
0.05,0.0972882,1.00001,5.99756,4.99758,6.99755,0.999997
0.06,0.116238,1.00002,5.9965,4.99652,6.99648,0.999999
0.07,0.135136,1.00003,5.99525,4.99528,6.99522,1
0.08,0.153823,1.00006,5.9938,4.99386,6.99375,1
0.09,0.172365,1.00008,5.99218,4.99226,6.9921,1
0.1,0.190926,1.00014,5.99036,4.99048,6.99026,1.00003
0.11,0.209229,1.00021,5.98836,4.98852,6.98823,1.00006
0.12,0.227394,1.00027,5.98618,4.98639,6.98601,1.00008
0.13,0.245402,1.00036,5.98382,4.9841,6.98359,1.0001
0.14,0.263306,1.00043,5.98128,4.98163,6.98099,1.00012
0.15,0.28104,1.0005,5.97856,4.97896,6.97824,1.00014
0.16,0.298647,1.0006,5.97567,4.97612,6.97528,1.00018
0.17,0.316138,1.00075,5.97259,4.97312,6.97212,1.00025
0.18,0.333485,1.00094,5.96935,4.96998,6.96874,1.00032
0.19,0.350722,1.00113,5.96593,4.96668,6.96517,1.00037
0.2,0.367767,1.00136,5.96234,4.96324,6.96137,1.00042
0.21,0.384684,1.00159,5.95858,4.95963,6.95746,1.0005
0.22,0.401471,1.00184,5.95465,4.95584,6.95337,1.0006
0.23,0.418107,1.00213,5.95056,4.95192,6.94907,1.0007
0.24,0.434586,1.00243,5.9463,4.94783,6.94456,1.00079
0.25,0.451018,1.00278,5.94187,4.94363,6.93988,1.00091
0.26,0.467363,1.00313,5.93728,4.93925,6.93507,1.00104
0.27,0.483448,1.00351,5.93253,4.93473,6.93004,1.00115
0.28,0.499385,1.00393,5.92762,4.93007,6.92479,1.00128
0.29,0.515188,1.00441,5.92254,4.92532,6.9194,1.00144
0.3,0.530876,1.00487,5.91732,4.92039,6.91386,1.00159
0.31,0.546261,1.00535,5.91193,4.91529,6.90813,1.00175
0.32,0.561708,1.00589,5.90639,4.91006,6.9022,1.00193
0.33,0.576958,1.00639,5.9007,4.90469,6.89616,1.00209
0.34,0.592135,1.00695,5.89486,4.89919,6.88992,1.00228
0.35,0.607134,1.00757,5.88887,4.89357,6.88348,1.00249
0.36,0.621986,1.00812,5.88272,4.8878,6.87696,1.00266
0.37,0.636757,1.00877,5.87643,4.88187,6.87022,1.00289
0.38,0.651374,1.0094,5.86999,4.87584,6.86334,1.00309
0.39,0.665823,1.01,5.86341,4.86967,6.8564,1.0033
0.4,0.680353,1.01065,5.85668,4.86331,6.84921,1.00353
0.41,0.69449,1.01128,5.8498,4.85686,6.84192,1.00372
0.42,0.708744,1.01198,5.84279,4.85027,6.83443,1.00397
0.43,0.72267,1.01261,5.83563,4.84354,6.82684,1.00416
0.44,0.73657,1.0133,5.82834,4.83667,6.81912,1.00441
0.45,0.750312,1.01397,5.82091,4.82967,6.81121,1.00461
0.46,0.764006,1.01464,5.81334,4.82253,6.80324,1.00485
0.47,0.777531,1.01531,5.80563,4.81525,6.79504,1.00505
0.48,0.791023,1.01597,5.79779,4.80786,6.78683,1.00529
0.49,0.80436,1.01663,5.78981,4.80028,6.77837,1.0055
0.5,0.817605,1.01731,5.78171,4.79264,6.76987,1.00573
0.51,0.830733,1.01794,5.77347,4.78479,6.76118,1.00592
0.52,0.843794,1.01859,5.7651,4.77686,6.75244,1.00616
0.53,0.856718,1.01922,5.75659,4.76876,6.74349,1.00634
0.54,0.869447,1.01986,5.74796,4.76056,6.73451,1.00657
0.55,0.882228,1.02046,5.73921,4.75218,6.72535,1.00677
0.56,0.894807,1.02106,5.73032,4.74371,6.71613,1.00698
0.57,0.907364,1.02168,5.72131,4.73509,6.70669,1.00718
0.58,0.919901,1.02226,5.71218,4.72635,6.69721,1.00736
0.59,0.932267,1.02286,5.70292,4.71748,6.68758,1.00757
0.6,0.944575,1.02342,5.69354,4.70848,6.67782,1.00773
0.61,0.956956,1.02397,5.68403,4.69934,6.66802,1.00794
0.62,0.969074,1.02455,5.6744,4.69007,6.658,1.00811
0.63,0.981107,1.02505,5.66465,4.68068,6.64795,1.00827
0.64,0.99311,1.02562,5.65478,4.67117,6.63773,1.00847
0.65,1.005,1.02615,5.6448,4.66155,6.62741,1.00864
0.66,1.01684,1.02667,5.63469,4.65179,6.61699,1.00881
0.67,1.02829,1.02721,5.62446,4.6419,6.60643,1.00899
0.68,1.03992,1.02772,5.61412,4.63191,6.59578,1.00915
0.69,1.05144,1.02821,5.60367,4.62177,6.58503,1.00932
0.7,1.06288,1.02877,5.5931,4.61157,6.57412,1.00951
0.71,1.0742,1.02926,5.58241,4.60121,6.56313,1.00967
0.72,1.08542,1.02974,5.57162,4.59071,6.55204,1.00983
0.73,1.09672,1.0303,5.56071,4.58016,6.5408,1.01002
0.74,1.10781,1.03079,5.54969,4.56944,6.52947,1.01019
0.75,1.11881,1.03127,5.53855,4.55861,6.51801,1.01033
0.76,1.12976,1.03186,5.52731,4.54773,6.50638,1.01053
0.77,1.14061,1.03239,5.51596,4.53671,6.4947,1.01071
0.78,1.15154,1.03291,5.5045,4.52558,6.48291,1.01088
0.79,1.16214,1.03348,5.49294,4.51438,6.47096,1.01105
0.8,1.17271,1.03407,5.48126,4.50305,6.45891,1.01125
0.81,1.18309,1.03463,5.46948,4.49162,6.44678,1.01143
0.82,1.19339,1.03519,5.4576,4.48011,6.43455,1.01161
0.83,1.20363,1.0358,5.44562,4.46853,6.42216,1.01179
0.84,1.21381,1.03641,5.43353,4.45682,6.40971,1.012
0.85,1.22392,1.03702,5.42135,4.44501,6.39716,1.01221
0.86,1.23389,1.03761,5.40906,4.4331,6.38451,1.0124
0.87,1.24389,1.03823,5.39667,4.42112,6.37173,1.01259
0.88,1.2537,1.0389,5.38418,4.40903,6.3588,1.0128
0.89,1.2634,1.03955,5.3716,4.39685,6.34584,1.01304
0.9,1.27324,1.0402,5.35892,4.38455,6.33276,1.01326
0.91,1.28277,1.04086,5.34614,4.37217,6.31958,1.01348
0.92,1.29217,1.04155,5.33326,4.35974,6.30625,1.01369
0.93,1.30154,1.04223,5.3203,4.34719,6.29285,1.01391
0.94,1.31074,1.04292,5.30724,4.33454,6.27937,1.01416
0.95,1.32004,1.0436,5.29408,4.32179,6.26581,1.0144
0.96,1.32926,1.04428,5.28084,4.30897,6.25217,1.01463
0.97,1.33842,1.04501,5.2675,4.29608,6.23836,1.01485
0.98,1.3474,1.04569,5.25407,4.28307,6.2245,1.01506
0.99,1.35624,1.04639,5.24056,4.26999,6.21053,1.01528
1,1.36514,1.04709,5.22695,4.25682,6.1965,1.01551
1.01,1.37382,1.0478,5.21326,4.24356,6.18239,1.01575
1.02,1.3825,1.04853,5.19948,4.23026,6.1682,1.01599
1.03,1.39105,1.04925,5.18561,4.21687,6.15393,1.01623
1.04,1.39942,1.04997,5.17166,4.20339,6.13955,1.01646
1.05,1.40796,1.05066,5.15762,4.18978,6.12511,1.01668
1.06,1.41634,1.05136,5.1435,4.17611,6.11056,1.0169
1.07,1.42452,1.05202,5.1293,4.16236,6.096,1.01712
1.08,1.43274,1.05269,5.11501,4.1485,6.08133,1.01733
1.09,1.44088,1.05335,5.10065,4.13458,6.0666,1.01755
1.1,1.44897,1.05402,5.0862,4.12056,6.05179,1.01778
1.11,1.45701,1.05469,5.07167,4.10648,6.03693,1.01801
1.12,1.46498,1.05534,5.05706,4.09231,6.02198,1.01823
1.13,1.47289,1.05598,5.04237,4.07804,6.00695,1.01845
1.14,1.4809,1.05661,5.0276,4.06366,5.99183,1.01866
1.15,1.48864,1.05723,5.01276,4.04922,5.97665,1.01887
1.16,1.49646,1.05786,4.99783,4.03471,5.96137,1.01907
1.17,1.50414,1.05847,4.98283,4.0201,5.94603,1.01926
1.18,1.51196,1.05908,4.96775,4.00542,5.9306,1.01946
1.19,1.51956,1.05966,4.95259,3.99064,5.91513,1.01965
1.2,1.52721,1.06025,4.93736,3.97581,5.89957,1.01983
1.21,1.53472,1.06083,4.92205,3.96089,5.88393,1.02001
1.22,1.54216,1.06139,4.90667,3.94588,5.86824,1.02019
1.23,1.54954,1.06194,4.89121,3.93077,5.85249,1.02037
1.24,1.55692,1.06248,4.87568,3.91561,5.83668,1.02055
1.25,1.56425,1.06302,4.86007,3.90037,5.82078,1.02072
1.26,1.57166,1.06355,4.8444,3.88504,5.80483,1.02089
1.27,1.57874,1.06404,4.82864,3.86962,5.78883,1.02106
1.28,1.58585,1.06456,4.81282,3.85415,5.77275,1.02123
1.29,1.59292,1.06508,4.79693,3.8386,5.75659,1.0214
1.3,1.60016,1.0656,4.78097,3.82297,5.74034,1.02157
1.31,1.60721,1.06609,4.76493,3.80726,5.72405,1.02174
1.32,1.6141,1.06659,4.74882,3.79147,5.70767,1.0219
1.33,1.6209,1.06709,4.73265,3.77562,5.69123,1.02206
1.34,1.62778,1.0676,4.71641,3.75971,5.67471,1.02222
1.35,1.63456,1.06807,4.7001,3.7437,5.65816,1.02238
1.36,1.64128,1.06858,4.68372,3.72765,5.6415,1.02254
1.37,1.64789,1.06907,4.66727,3.71154,5.62479,1.02271
1.38,1.65435,1.06958,4.65076,3.69535,5.60799,1.02286
1.39,1.66103,1.07006,4.63419,3.67909,5.59117,1.02302
1.4,1.66754,1.07059,4.61755,3.66277,5.57423,1.0232
1.41,1.6739,1.07111,4.60084,3.6464,5.55725,1.02337
1.42,1.68017,1.07164,4.58407,3.62996,5.54019,1.02354
1.43,1.68648,1.07216,4.56724,3.61344,5.52308,1.02372
1.44,1.6927,1.0727,4.55034,3.59688,5.50589,1.02389
1.45,1.69905,1.07324,4.53339,3.58025,5.48862,1.02406
1.46,1.70506,1.07376,4.51637,3.56355,5.47131,1.02423
1.47,1.71126,1.07429,4.49928,3.54679,5.4539,1.0244
1.48,1.71719,1.07482,4.48214,3.52997,5.43646,1.02457
1.49,1.72303,1.07534,4.46494,3.5131,5.41898,1.02473
1.5,1.72887,1.07584,4.44768,3.49616,5.40144,1.02489
1.51,1.73408,1.07639,4.43037,3.47918,5.38384,1.02508
1.52,1.73968,1.07696,4.413,3.46216,5.36618,1.02528
1.53,1.74545,1.07752,4.39558,3.44509,5.34848,1.02547
1.54,1.75106,1.0781,4.3781,3.42796,5.33067,1.02566
1.55,1.7566,1.07868,4.36056,3.41077,5.31281,1.02584
1.56,1.7621,1.07925,4.34297,3.39354,5.2949,1.02602
1.57,1.76757,1.07979,4.32532,3.37623,5.27696,1.02619
1.58,1.77297,1.08034,4.30762,3.35889,5.25896,1.02636
1.59,1.77838,1.08089,4.28986,3.34148,5.24092,1.02655
1.6,1.78365,1.08146,4.27205,3.32402,5.22285,1.02675
1.61,1.78891,1.08202,4.25419,3.30649,5.20469,1.02695
1.62,1.79406,1.08259,4.23628,3.28892,5.18648,1.02714
1.63,1.79917,1.08315,4.21831,3.27132,5.16822,1.02731
1.64,1.80423,1.08367,4.2003,3.25366,5.14993,1.02747
1.65,1.80917,1.08421,4.18223,3.23595,5.13156,1.02763
1.66,1.81416,1.08478,4.16411,3.2182,5.11317,1.02781
1.67,1.81918,1.08531,4.14595,3.20037,5.09478,1.02801
1.68,1.8241,1.08584,4.12773,3.18247,5.07628,1.02819
1.69,1.82897,1.08637,4.10947,3.16454,5.05773,1.02836
1.7,1.83376,1.08688,4.09115,3.14657,5.03915,1.02851
1.71,1.83865,1.08737,4.07279,3.12856,5.02054,1.02864
1.72,1.84351,1.0879,4.05438,3.11049,5.00188,1.02882
1.73,1.84819,1.08841,4.03593,3.09236,4.9832,1.029
1.74,1.85297,1.08888,4.01742,3.07417,4.96449,1.02917
1.75,1.8576,1.08935,3.99887,3.05591,4.94569,1.02931
1.76,1.86218,1.08982,3.98027,3.03764,4.92684,1.02944
1.77,1.86695,1.09028,3.96163,3.01931,4.90799,1.02959
1.78,1.87156,1.09073,3.94293,3.00092,4.88911,1.02975
1.79,1.8761,1.09119,3.9242,2.98248,4.87015,1.02991
1.8,1.88056,1.09163,3.90541,2.96397,4.85115,1.03005
1.81,1.88448,1.09206,3.88659,2.94545,4.8321,1.03017
1.82,1.88889,1.09251,3.86773,2.92688,4.81302,1.03031
1.83,1.89332,1.09295,3.84881,2.90826,4.79392,1.03046
1.84,1.89771,1.09334,3.82986,2.88956,4.7748,1.03061
1.85,1.90186,1.09373,3.81086,2.8708,4.7556,1.03073
1.86,1.90609,1.09415,3.79182,2.85204,4.7363,1.03083
1.87,1.91031,1.09458,3.77274,2.83325,4.71706,1.03099
1.88,1.91448,1.09497,3.75362,2.8144,4.69779,1.03112
1.89,1.91863,1.09533,3.73446,2.79547,4.67846,1.03125
1.9,1.9226,1.09569,3.71525,2.77649,4.65904,1.03135
1.91,1.92682,1.09612,3.696,2.7575,4.63956,1.03148
1.92,1.93088,1.09651,3.67672,2.73848,4.62012,1.03162
1.93,1.93497,1.09689,3.65739,2.71941,4.60063,1.03174
1.94,1.93901,1.09724,3.63802,2.70026,4.58107,1.03185
1.95,1.94294,1.09762,3.61861,2.68107,4.56143,1.03197
1.96,1.94683,1.09803,3.59916,2.6619,4.54181,1.0321
1.97,1.95083,1.09839,3.57968,2.64266,4.5222,1.03223
1.98,1.95477,1.09873,3.56015,2.62335,4.50249,1.03233
1.99,1.95855,1.09913,3.54058,2.60401,4.48268,1.03245
2,1.96233,1.09953,3.52098,2.58468,4.46291,1.03259
2.01,1.96599,1.09991,3.50134,2.5653,4.44312,1.03271
2.02,1.96962,1.10025,3.48166,2.54583,4.42326,1.03282
2.03,1.97311,1.10065,3.46195,2.52632,4.4033,1.03295
2.04,1.97669,1.10105,3.4422,2.50683,4.38337,1.03308
2.05,1.98019,1.10143,3.42242,2.48731,4.36342,1.03321
2.06,1.98368,1.10181,3.4026,2.46773,4.3434,1.03331
2.07,1.98726,1.10224,3.38274,2.44809,4.32329,1.03346
2.08,1.99064,1.10263,3.36286,2.42847,4.30324,1.03359
2.09,1.99391,1.10302,3.34293,2.40882,4.28315,1.03371
2.1,1.99732,1.10343,3.32298,2.38908,4.26294,1.03384
2.11,2.00051,1.10384,3.30299,2.36931,4.24274,1.03398
2.12,2.00366,1.10425,3.28297,2.34959,4.22255,1.03411
2.13,2.0068,1.10466,3.26292,2.32981,4.20228,1.03422
2.14,2.00984,1.10507,3.24284,2.30993,4.18197,1.03437
2.15,2.01287,1.10548,3.22272,2.29007,4.16166,1.0345
2.16,2.01561,1.1059,3.20258,2.27022,4.14133,1.03463
2.17,2.01873,1.10632,3.18241,2.25028,4.12092,1.03476
2.18,2.02164,1.10673,3.16221,2.23031,4.1005,1.0349
2.19,2.02453,1.10716,3.14198,2.21037,4.08007,1.03503
2.2,2.02737,1.10756,3.12172,2.19039,4.05961,1.03514
2.21,2.03015,1.10797,3.10143,2.17032,4.03912,1.03529
2.22,2.03304,1.10837,3.08112,2.15025,4.01863,1.03542
2.23,2.03542,1.10878,3.06078,2.13021,3.99809,1.03554
2.24,2.03811,1.10919,3.04041,2.11007,3.97751,1.03567
2.25,2.04082,1.10957,3.02002,2.0899,3.95695,1.0358
2.26,2.04333,1.10997,2.99959,2.06977,3.93634,1.03592
2.27,2.04596,1.11037,2.97915,2.04958,3.9157,1.03604
2.28,2.04811,1.11074,2.95868,2.02932,3.89506,1.03618
2.29,2.05076,1.11113,2.93819,2.00909,3.87439,1.03629
2.3,2.05329,1.11153,2.91767,1.98885,3.85368,1.03641
2.31,2.05553,1.1119,2.89712,1.96853,3.83298,1.03654
2.32,2.05797,1.11226,2.87656,1.94821,3.81226,1.03665
2.33,2.06043,1.11262,2.85597,1.9279,3.79152,1.03675
2.34,2.06283,1.11299,2.83535,1.90752,3.77076,1.03689
2.35,2.06518,1.11332,2.81471,1.88709,3.74997,1.03699
2.36,2.06748,1.11367,2.79405,1.86671,3.72916,1.03708
2.37,2.06973,1.11404,2.77336,1.84626,3.70833,1.03721
2.38,2.07192,1.11436,2.75265,1.82575,3.68748,1.03732
2.39,2.07414,1.11468,2.73193,1.80527,3.66662,1.0374
2.4,2.07625,1.11504,2.71117,1.78476,3.64573,1.03753
2.41,2.07858,1.11534,2.6904,1.76416,3.62481,1.03763
2.42,2.08066,1.11564,2.6696,1.7436,3.60388,1.0377
2.43,2.08262,1.116,2.64879,1.72303,3.58293,1.03783
2.44,2.08463,1.11629,2.62795,1.70237,3.56196,1.03792
2.45,2.08657,1.11657,2.6071,1.68175,3.54099,1.03799
2.46,2.08858,1.11693,2.58622,1.66112,3.51998,1.03811
2.47,2.09049,1.11721,2.56533,1.6404,3.49895,1.03819
2.48,2.09224,1.1175,2.54442,1.61972,3.47791,1.03826
2.49,2.094,1.11785,2.52348,1.59903,3.45684,1.03838
2.5,2.09559,1.11812,2.50254,1.57825,3.43576,1.03846
2.51,2.09726,1.11841,2.48157,1.55751,3.41469,1.03854
2.52,2.09876,1.11876,2.46059,1.53677,3.39357,1.03866
2.53,2.10022,1.11902,2.4396,1.51594,3.37245,1.03874
2.54,2.1017,1.11933,2.41859,1.49517,3.35132,1.03883
2.55,2.10302,1.11969,2.39757,1.47439,3.33014,1.03894
2.56,2.10436,1.11996,2.37653,1.45352,3.30898,1.03902
2.57,2.10575,1.12028,2.35548,1.43272,3.28782,1.03911
2.58,2.10686,1.12064,2.33442,1.4119,3.26659,1.03922
2.59,2.108,1.12091,2.31335,1.391,3.24538,1.0393
2.6,2.10909,1.12126,2.29226,1.37016,3.22416,1.03941
2.61,2.11001,1.12163,2.27117,1.3493,3.20289,1.03951
2.62,2.111,1.12188,2.25006,1.32838,3.18167,1.03959
2.63,2.1119,1.12226,2.22895,1.30754,3.16042,1.03971
2.64,2.11275,1.12262,2.20783,1.28665,3.13913,1.03981
2.65,2.11349,1.12288,2.18669,1.26572,3.11788,1.03988
2.66,2.11415,1.1233,2.16556,1.24487,3.09659,1.04002
2.67,2.1146,1.12366,2.14441,1.22397,3.07528,1.04012
2.68,2.11497,1.12395,2.12327,1.20306,3.05402,1.0402
2.69,2.11533,1.1244,2.10212,1.18222,3.03269,1.04034
2.7,2.11552,1.12474,2.08096,1.16132,3.01139,1.04042
2.71,2.11556,1.12509,2.05981,1.14043,2.99012,1.04053
2.72,2.11552,1.12556,2.03865,1.11961,2.96876,1.04067
2.73,2.1152,1.1259,2.0175,1.09872,2.94746,1.04075
2.74,2.11493,1.12631,1.99635,1.07788,2.92619,1.04088
2.75,2.11466,1.12678,1.9752,1.05708,2.90485,1.04101
2.76,2.11414,1.12711,1.95406,1.03622,2.88358,1.04109
2.77,2.1136,1.12758,1.93292,1.01542,2.86228,1.04124
2.78,2.11271,1.12804,1.91179,0.994646,2.84096,1.04136
2.79,2.11179,1.12838,1.89067,0.97383,2.81973,1.04144
2.8,2.11066,1.1289,1.86956,0.953102,2.79844,1.0416
2.81,2.1095,1.12937,1.84846,0.932389,2.77716,1.04172
2.82,2.10808,1.12977,1.82737,0.91165,2.75595,1.04182
2.83,2.10652,1.13034,1.8063,0.891005,2.73466,1.04198
2.84,2.10473,1.13082,1.78524,0.870361,2.71343,1.04209
2.85,2.10272,1.13127,1.7642,0.849723,2.69228,1.04221
2.86,2.10063,1.13187,1.74319,0.829195,2.67104,1.04237
2.87,2.09831,1.13235,1.72219,0.808655,2.64991,1.04247
2.88,2.09587,1.13285,1.70122,0.78813,2.62882,1.04261
2.89,2.0931,1.13349,1.68028,0.767717,2.60763,1.04276
2.9,2.09012,1.13399,1.65936,0.747303,2.58659,1.04287
2.91,2.08683,1.13457,1.63848,0.726938,2.56558,1.04304
2.92,2.08323,1.13526,1.61763,0.706706,2.54449,1.04319
2.93,2.07949,1.13581,1.59681,0.686468,2.52356,1.0433
2.94,2.07502,1.13649,1.57604,0.666297,2.50262,1.04348
2.95,2.07062,1.13726,1.55531,0.646269,2.48163,1.04364
2.96,2.06579,1.1379,1.53463,0.626263,2.46082,1.04377
2.97,2.06067,1.13868,1.514,0.606345,2.44001,1.04398
2.98,2.055,1.13953,1.49342,0.586581,2.41918,1.04415
2.99,2.04918,1.14027,1.4729,0.566863,2.39852,1.04429
3,2.04295,1.14116,1.45244,0.547231,2.37785,1.04451
3.01,2.03631,1.14215,1.43204,0.527802,2.35717,1.0447
3.02,2.0291,1.14304,1.41171,0.508444,2.33667,1.04487
3.03,2.0215,1.14408,1.39146,0.489186,2.31618,1.04511
3.04,2.01335,1.14524,1.37129,0.470186,2.29571,1.04533
3.05,2.00468,1.14634,1.3512,0.451279,2.27539,1.04553
3.06,1.99532,1.14757,1.3312,0.432483,2.25512,1.0458
3.07,1.98541,1.14896,1.31129,0.413964,2.23486,1.04607
3.08,1.97484,1.15036,1.29149,0.395644,2.21477,1.04632
3.09,1.96364,1.15181,1.2718,0.377453,2.19477,1.04661
3.1,1.95176,1.15346,1.25222,0.359545,2.17484,1.04693
3.11,1.9391,1.15518,1.23277,0.341914,2.15501,1.04723
3.12,1.92555,1.15697,1.21344,0.324491,2.13532,1.04753
3.13,1.91128,1.15895,1.19426,0.307328,2.11572,1.04792
3.14,1.89598,1.16113,1.17522,0.290548,2.09622,1.04831
3.15,1.87988,1.16343,1.15634,0.274098,2.07685,1.04869
3.16,1.86275,1.16587,1.13763,0.257948,2.05765,1.04911
3.17,1.84447,1.16853,1.11909,0.242134,2.03858,1.04959
3.18,1.82522,1.17146,1.10074,0.226835,2.01962,1.05009
3.19,1.8047,1.17464,1.08259,0.212004,2.00079,1.05059
3.2,1.78318,1.17797,1.06465,0.197548,1.98218,1.05112
3.21,1.76037,1.18156,1.04693,0.183513,1.96378,1.05175
3.22,1.73633,1.18549,1.02945,0.170085,1.94554,1.05239
3.23,1.71092,1.18978,1.01221,0.157301,1.92745,1.05305
3.24,1.68404,1.1944,0.995238,0.145087,1.90957,1.05375
3.25,1.65576,1.19928,0.978538,0.133444,1.89198,1.05449
3.26,1.62586,1.20456,0.96213,0.122451,1.87463,1.0553
3.27,1.59453,1.21031,0.946028,0.112161,1.85746,1.05617
3.28,1.56144,1.21654,0.930248,0.102668,1.84053,1.05709
3.29,1.52657,1.22327,0.914807,0.0939829,1.82388,1.05807
3.3,1.48989,1.23053,0.899725,0.0861658,1.80754,1.05911
3.31,1.45137,1.23837,0.885018,0.0791897,1.79148,1.06022
3.32,1.41086,1.2467,0.870707,0.0729771,1.77574,1.06141
3.33,1.36859,1.25551,0.856809,0.0674621,1.7603,1.06269
3.34,1.32425,1.26485,0.843344,0.0627084,1.7452,1.06405
3.35,1.2779,1.27463,0.830333,0.0585816,1.73048,1.06553
3.36,1.22939,1.28475,0.817795,0.0550149,1.71617,1.06709
3.37,1.17888,1.29519,0.805752,0.0519025,1.70225,1.06876
3.38,1.12627,1.30561,0.794226,0.0488319,1.68874,1.07054
3.39,1.07183,1.31613,0.783236,0.0459334,1.67563,1.07245
3.4,1.01548,1.32669,0.772797,0.0431842,1.66297,1.07447
3.41,0.957482,1.33724,0.762929,0.0405536,1.65068,1.07656
3.42,0.898099,1.34775,0.753648,0.0381046,1.63889,1.07873
3.43,0.837391,1.35818,0.744968,0.0358234,1.62763,1.08098
3.44,0.775645,1.3683,0.736901,0.0337086,1.61692,1.08315
3.45,0.712976,1.37818,0.729456,0.0317441,1.60667,1.08527
3.46,0.649575,1.3878,0.722642,0.02993,1.59695,1.08736
3.47,0.585285,1.39681,0.716465,0.0282391,1.58786,1.08924
3.48,0.520832,1.4054,0.710932,0.0266384,1.57941,1.09113
3.49,0.456126,1.41363,0.706044,0.0252221,1.57152,1.09294
3.5,0.391796,1.42126,0.701803,0.0238458,1.56424,1.09465
3.51,0.327977,1.42841,0.698202,0.0226822,1.55763,1.09627
3.52,0.265074,1.43481,0.695235,0.021522,1.5517,1.09775
3.53,0.203327,1.44032,0.692891,0.0205335,1.54651,1.09895
3.54,0.142761,1.44498,0.691158,0.0196381,1.54194,1.09984
3.55,0.0834613,1.44816,0.690025,0.0188162,1.53852,1.10039
3.56,0.0256524,1.45029,0.689478,0.0180522,1.53587,1.10063
3.57,-0.0305916,1.45106,0.6895,0.0173796,1.53428,1.10055
3.58,-0.0853184,1.45043,0.690078,0.0167578,1.53384,1.10021
3.59,-0.138358,1.44845,0.691195,0.0162137,1.53449,1.09957
3.6,-0.189627,1.44551,0.692833,0.015738,1.53591,1.09871
3.61,-0.239166,1.44147,0.694975,0.0153264,1.53818,1.09758
3.62,-0.28709,1.4365,0.697605,0.0149467,1.54116,1.09621
3.63,-0.333297,1.43072,0.700705,0.0146049,1.54481,1.09465
3.64,-0.37776,1.42415,0.704259,0.0143081,1.54902,1.09283
3.65,-0.420674,1.41645,0.70825,0.0140279,1.5542,1.09079
3.66,-0.461923,1.40794,0.712661,0.0137818,1.56,1.08849
3.67,-0.50155,1.39814,0.717477,0.0135748,1.56709,1.08602
3.68,-0.53944,1.38765,0.722681,0.0133923,1.5749,1.08341
3.69,-0.575425,1.37619,0.728254,0.0132446,1.58365,1.08058
3.7,-0.60961,1.36412,0.734178,0.0131257,1.59323,1.07773
3.71,-0.642011,1.35148,0.740435,0.0130441,1.60351,1.07474
3.72,-0.672544,1.33845,0.747007,0.0129921,1.6144,1.0717
3.73,-0.701096,1.32527,0.753875,0.0129744,1.6257,1.06865
3.74,-0.727677,1.31179,0.761018,0.0129742,1.63752,1.06553
3.75,-0.752279,1.29846,0.768418,0.0130151,1.6495,1.06245
3.76,-0.774857,1.28506,0.776053,0.0130791,1.66169,1.05928
