time,velocity,ratio,centerX,Xmax,Xmin,Ymax
0,0,1,8.5,7.5,9.5,1
0.01,0.0197659,0.999988,8.49991,7.49989,9.49993,1.00001
0.02,0.0393703,0.999998,8.49963,7.49961,9.49964,1.00001
0.03,0.0588315,1.00001,8.49916,7.49914,9.49915,1.00002
0.04,0.0781363,1.00003,8.49849,7.49847,9.49846,1.00002
0.05,0.0972884,1.00005,8.49764,7.49761,9.49756,1.00002
0.06,0.116296,1.00007,8.49659,7.49656,9.49648,1.00003
0.07,0.135159,1.00009,8.49535,7.49533,9.4952,1.00003
0.08,0.153877,1.00011,8.49393,7.4939,9.49372,1.00002
0.09,0.172437,1.00013,8.49231,7.4923,9.49206,1.00001
0.1,0.190878,1.00019,8.49052,7.49052,9.49021,1.00003
0.11,0.209185,1.00026,8.48853,7.48857,9.48817,1.00006
0.12,0.22734,1.00033,8.48637,7.48645,9.48595,1.00008
0.13,0.245339,1.0004,8.48403,7.48415,9.48357,1.00011
0.14,0.263203,1.00046,8.4815,7.48169,9.48102,1.00013
0.15,0.281146,1.00053,8.4788,7.47905,9.47829,1.00015
0.16,0.298753,1.00061,8.47592,7.47625,9.47537,1.00018
0.17,0.316219,1.00076,8.47286,7.47329,9.47225,1.00024
0.18,0.333552,1.00095,8.46963,7.47018,9.4689,1.00031
0.19,0.350797,1.00117,8.46623,7.46692,9.46536,1.00039
0.2,0.367823,1.0014,8.46265,7.46351,9.46164,1.00046
0.21,0.384718,1.00166,8.4589,7.45995,9.45771,1.00054
0.22,0.401462,1.00202,8.45499,7.45625,9.45356,1.00067
0.23,0.418074,1.00242,8.45091,7.45242,9.44919,1.0008
0.24,0.434491,1.00284,8.44666,7.44844,9.44461,1.00092
0.25,0.450837,1.00331,8.44225,7.44431,9.43985,1.00107
0.26,0.466951,1.00386,8.43768,7.44004,9.43486,1.00126
0.27,0.483035,1.00445,8.43295,7.43564,9.42963,1.00144
0.28,0.498818,1.00511,8.42805,7.43112,9.42418,1.00162
0.29,0.514423,1.00587,8.423,7.42649,9.41854,1.00187
0.3,0.529745,1.00667,8.4178,7.42175,9.41271,1.00212
0.31,0.545028,1.00753,8.41244,7.41688,9.40666,1.00238
0.32,0.560136,1.0085,8.40693,7.41189,9.4004,1.00271
0.33,0.575021,1.00952,8.40127,7.4068,9.39394,1.00303
0.34,0.589723,1.01063,8.39546,7.40161,9.38725,1.00337
0.35,0.604277,1.01185,8.3895,7.39631,9.38033,1.00377
0.36,0.618497,1.01315,8.38341,7.39093,9.37317,1.00416
0.37,0.632518,1.01457,8.37717,7.38545,9.36578,1.0046
0.38,0.646364,1.01611,8.37078,7.37985,9.35812,1.00507
0.39,0.659972,1.0177,8.36427,7.37413,9.35024,1.00554
0.4,0.673337,1.01945,8.35761,7.36831,9.34212,1.0061
0.41,0.686594,1.02128,8.35083,7.36244,9.33376,1.00664
0.42,0.69947,1.02327,8.34391,7.3565,9.32514,1.00722
0.43,0.712124,1.02537,8.33687,7.35047,9.31628,1.00785
0.44,0.724435,1.02759,8.3297,7.34437,9.30715,1.00847
0.45,0.736551,1.02999,8.3224,7.33819,9.29777,1.00917
0.46,0.748388,1.03249,8.31499,7.33195,9.28811,1.00986
0.47,0.759973,1.03517,8.30746,7.32563,9.2782,1.01062
0.48,0.771298,1.03797,8.29982,7.31923,9.268,1.01138
0.49,0.782284,1.04091,8.29206,7.31273,9.25753,1.01218
0.5,0.792975,1.04402,8.2842,7.30616,9.24677,1.01302
0.51,0.80337,1.04727,8.27623,7.29954,9.23574,1.01386
0.52,0.81348,1.05075,8.26815,7.29287,9.22441,1.01478
0.53,0.823283,1.05433,8.25998,7.28613,9.21282,1.01568
0.54,0.832748,1.05814,8.25171,7.27935,9.20092,1.01664
0.55,0.841905,1.06209,8.24335,7.27251,9.18873,1.0176
0.56,0.850768,1.0663,8.2349,7.26563,9.17623,1.01863
0.57,0.859328,1.07066,8.22635,7.2587,9.16344,1.01967
0.58,0.867553,1.07524,8.21773,7.25167,9.15035,1.02076
0.59,0.875518,1.07997,8.20902,7.24458,9.13696,1.02186
0.6,0.883107,1.08497,8.20024,7.23747,9.12326,1.02301
0.61,0.890384,1.09017,8.19138,7.23033,9.10925,1.02417
0.62,0.897051,1.0956,8.18245,7.22317,9.09496,1.02536
0.63,0.90372,1.10123,8.17346,7.21596,9.0804,1.02658
0.64,0.909988,1.1071,8.1644,7.20873,9.06552,1.02782
0.65,0.916017,1.1132,8.15528,7.20146,9.05036,1.0291
0.66,0.921629,1.11951,8.1461,7.19415,9.0349,1.03037
0.67,0.926955,1.12604,8.13686,7.18676,9.01917,1.03169
0.68,0.931988,1.1328,8.12758,7.17935,9.00313,1.03299
0.69,0.936731,1.13983,8.11824,7.17192,8.98683,1.03435
0.7,0.941176,1.1471,8.10886,7.16447,8.97024,1.0357
0.71,0.945269,1.15463,8.09943,7.15698,8.95341,1.0371
0.72,0.949099,1.16239,8.08997,7.14948,8.9363,1.03849
0.73,0.952645,1.17043,8.08047,7.14195,8.91898,1.03994
0.74,0.955925,1.17869,8.07093,7.13441,8.90138,1.04136
0.75,0.958881,1.18723,8.06136,7.1268,8.88356,1.04284
0.76,0.961698,1.19593,8.05177,7.11914,8.86553,1.04428
0.77,0.964254,1.20464,8.04214,7.11148,8.84776,1.04579
0.78,0.966541,1.21307,8.0325,7.10383,8.83044,1.04724
0.79,0.968605,1.22137,8.02283,7.09616,8.81352,1.04877
0.8,0.970451,1.22947,8.01314,7.08848,8.79694,1.05025
0.81,0.972073,1.23747,8.00343,7.08078,8.78071,1.05181
0.82,0.973508,1.24528,7.99371,7.07307,8.76478,1.05333
0.83,0.974702,1.25301,7.98398,7.06531,8.74913,1.05492
0.84,0.97573,1.26051,7.97423,7.05752,8.73376,1.05646
0.85,0.976657,1.26796,7.96447,7.04973,8.71866,1.05807
0.86,0.977406,1.27524,7.95471,7.04194,8.70379,1.05963
0.87,0.978022,1.28245,7.94494,7.03412,8.68916,1.06125
0.88,0.978514,1.28948,7.93516,7.0263,8.67474,1.06282
0.89,0.978898,1.29644,7.92538,7.01846,8.66055,1.06444
0.9,0.979101,1.30326,7.9156,7.01062,8.64653,1.06601
0.91,0.979271,1.31002,7.90581,7.00274,8.6327,1.06764
0.92,0.979383,1.31659,7.89602,6.99481,8.61906,1.06923
0.93,0.979266,1.32312,7.88624,6.9869,8.60562,1.07088
0.94,0.979038,1.32954,7.87645,6.979,8.59232,1.07249
0.95,0.97874,1.33593,7.86667,6.97109,8.57916,1.07413
0.96,0.978437,1.34216,7.85689,6.96318,8.56619,1.07575
0.97,0.977932,1.34835,7.84711,6.95525,8.55335,1.07739
0.98,0.977391,1.35447,7.83734,6.94733,8.54058,1.079
0.99,0.976846,1.36041,7.82758,6.93937,8.52806,1.08064
1,0.976246,1.36627,7.81782,6.93138,8.51563,1.08226
1.01,0.975576,1.37215,7.80806,6.92339,8.50326,1.08391
1.02,0.974839,1.37794,7.79832,6.91541,8.49102,1.08555
1.03,0.97407,1.38366,7.78858,6.90742,8.4789,1.0872
1.04,0.97326,1.38931,7.77885,6.89942,8.46689,1.08885
1.05,0.972314,1.39488,7.76912,6.89143,8.455,1.09049
1.06,0.971482,1.40042,7.75941,6.88344,8.44317,1.09214
1.07,0.97058,1.40583,7.74971,6.87539,8.43147,1.09379
1.08,0.969624,1.4112,7.74001,6.86732,8.41979,1.09541
1.09,0.968677,1.41643,7.73033,6.85927,8.4083,1.09704
1.1,0.96768,1.42176,7.72065,6.85124,8.39677,1.09869
1.11,0.966742,1.4269,7.71099,6.84319,8.38545,1.10032
1.12,0.965774,1.43211,7.70133,6.83515,8.37411,1.10198
1.13,0.964741,1.43722,7.69168,6.8271,8.36286,1.10361
1.14,0.963769,1.44228,7.68205,6.81904,8.35172,1.10527
1.15,0.962776,1.44729,7.67242,6.81095,8.34055,1.10689
1.16,0.961788,1.45217,7.6628,6.80283,8.32959,1.10855
1.17,0.960748,1.45701,7.6532,6.79474,8.31861,1.11015
1.18,0.959962,1.46192,7.6436,6.78664,8.30764,1.1118
1.19,0.958946,1.46659,7.63401,6.77853,8.29689,1.1134
1.2,0.957932,1.47145,7.62444,6.77042,8.28602,1.11507
1.21,0.956972,1.47615,7.61487,6.76231,8.27528,1.11668
1.22,0.955982,1.48084,7.60531,6.75418,8.26462,1.11836
1.23,0.954985,1.48541,7.59576,6.746,8.25396,1.11997
1.24,0.954031,1.49004,7.58622,6.73783,8.24336,1.12165
1.25,0.953065,1.49452,7.57669,6.72968,8.23284,1.12325
1.26,0.952101,1.49912,7.56717,6.72153,8.22231,1.12493
1.27,0.951216,1.50354,7.55767,6.71338,8.21185,1.12651
1.28,0.950291,1.508,7.54816,6.70523,8.20147,1.12817
1.29,0.949313,1.51239,7.53867,6.69707,8.19108,1.12976
1.3,0.948369,1.51687,7.52919,6.68889,8.18067,1.13142
1.31,0.947451,1.5211,7.51972,6.68069,8.17043,1.13302
1.32,0.946566,1.52546,7.51025,6.6725,8.16016,1.13468
1.33,0.945736,1.52979,7.5008,6.66432,8.14986,1.13628
1.34,0.944863,1.53403,7.49135,6.65613,8.1397,1.13792
1.35,0.944079,1.5382,7.48192,6.64793,8.12956,1.13952
1.36,0.943196,1.54249,7.47249,6.63975,8.11937,1.14115
1.37,0.94251,1.54667,7.46306,6.63155,8.10922,1.14274
1.38,0.941702,1.55073,7.45365,6.62331,8.09921,1.14436
1.39,0.940906,1.5548,7.44424,6.61507,8.08915,1.14596
1.4,0.94018,1.55903,7.43484,6.60685,8.07903,1.14758
1.41,0.939462,1.56304,7.42545,6.59862,8.06908,1.14919
1.42,0.938677,1.5671,7.41607,6.5904,8.05912,1.15081
1.43,0.937939,1.57119,7.40669,6.58217,8.04911,1.15242
1.44,0.937167,1.57531,7.39733,6.57395,8.03909,1.15402
1.45,0.936463,1.57918,7.38796,6.5657,8.02927,1.15563
1.46,0.935893,1.58308,7.37861,6.55742,8.0194,1.15721
1.47,0.935248,1.58703,7.36926,6.54915,8.0095,1.15881
1.48,0.93469,1.59102,7.35992,6.54089,7.99957,1.16039
1.49,0.934089,1.59484,7.35058,6.53262,7.98981,1.162
1.5,0.933448,1.5987,7.34125,6.52435,7.98001,1.16358
1.51,0.932815,1.60265,7.33192,6.51607,7.97015,1.16519
1.52,0.932277,1.60652,7.32261,6.5078,7.96034,1.16677
1.53,0.931774,1.61022,7.31329,6.49948,7.95067,1.16837
1.54,0.931163,1.61397,7.30399,6.49115,7.9409,1.16993
1.55,0.930604,1.61781,7.29468,6.48285,7.93114,1.17153
1.56,0.930122,1.62161,7.28539,6.47456,7.92135,1.17307
1.57,0.929614,1.6253,7.27609,6.46627,7.91173,1.17466
1.58,0.929178,1.62897,7.26681,6.45797,7.90209,1.17621
1.59,0.928791,1.63284,7.25752,6.44968,7.89234,1.17782
1.6,0.928473,1.63663,7.24825,6.44137,7.88259,1.17937
1.61,0.928077,1.64026,7.23897,6.43303,7.87302,1.18098
1.62,0.92768,1.64392,7.2297,6.42469,7.86337,1.18253
1.63,0.927301,1.64767,7.22043,6.41637,7.85372,1.18415
1.64,0.926937,1.65144,7.21116,6.40804,7.84398,1.18569
1.65,0.926553,1.6551,7.20191,6.39971,7.83443,1.1873
1.66,0.926337,1.65863,7.19265,6.39138,7.82488,1.18882
1.67,0.926062,1.6624,7.18339,6.38305,7.81522,1.19042
1.68,0.92578,1.66603,7.17414,6.37468,7.80556,1.19194
1.69,0.925492,1.66972,7.16489,6.3663,7.79594,1.19355
1.7,0.925247,1.67327,7.15564,6.35795,7.78637,1.19507
1.71,0.924985,1.6769,7.1464,6.34959,7.77683,1.19667
1.72,0.924724,1.6806,7.13716,6.34124,7.76715,1.1982
1.73,0.924699,1.68434,7.12792,6.33287,7.75752,1.19979
1.74,0.924499,1.68784,7.11868,6.32453,7.74802,1.20132
1.75,0.924338,1.69147,7.10944,6.31615,7.73845,1.20289
1.76,0.924129,1.69497,7.10021,6.30774,7.72889,1.2044
1.77,0.924039,1.6987,7.09097,6.29934,7.71921,1.20596
1.78,0.923881,1.70229,7.08174,6.29095,7.70961,1.20749
1.79,0.923734,1.70576,7.07251,6.28255,7.70016,1.20905
1.8,0.923608,1.70937,7.06328,6.27415,7.69056,1.21058
1.81,0.9235,1.71297,7.05405,6.26576,7.68101,1.21215
1.82,0.92342,1.71673,7.04482,6.25737,7.6713,1.21367
1.83,0.923537,1.7202,7.0356,6.24892,7.66181,1.21523
1.84,0.923451,1.72356,7.02637,6.24046,7.65237,1.21675
1.85,0.923423,1.72717,7.01714,6.23203,7.64277,1.21829
1.86,0.923324,1.73071,7.00792,6.22361,7.6332,1.2198
1.87,0.923291,1.73441,6.99869,6.21519,7.62353,1.22132
1.88,0.923293,1.73791,6.98946,6.20676,7.61402,1.22284
1.89,0.9233,1.74137,6.98024,6.19834,7.60456,1.22437
1.9,0.923323,1.74498,6.97101,6.1899,7.59496,1.22589
1.91,0.923359,1.74853,6.96179,6.18144,7.58538,1.22742
1.92,0.923415,1.75212,6.95256,6.17299,7.57579,1.22894
1.93,0.923483,1.75565,6.94333,6.16454,7.56626,1.23046
1.94,0.923507,1.75915,6.93411,6.1561,7.55675,1.23197
1.95,0.923643,1.76273,6.92488,6.14765,7.54716,1.23348
1.96,0.923686,1.76643,6.91565,6.13921,7.53748,1.23498
1.97,0.923793,1.76999,6.90642,6.13075,7.5279,1.23646
1.98,0.924044,1.77348,6.89718,6.12226,7.51835,1.23797
1.99,0.924106,1.77693,6.88795,6.11376,7.50883,1.23947
2,0.924267,1.7806,6.87872,6.10529,7.49919,1.24099
2.01,0.9244,1.78433,6.86948,6.09682,7.48949,1.24249
2.02,0.924521,1.78803,6.86024,6.08836,7.47983,1.244
2.03,0.924775,1.79156,6.851,6.07988,7.47029,1.2455
2.04,0.924939,1.79521,6.84176,6.07142,7.46068,1.24701
2.05,0.925074,1.7988,6.83252,6.06291,7.45105,1.24849
2.06,0.925305,1.80262,6.82328,6.0544,7.44128,1.25002
2.07,0.925575,1.80626,6.81403,6.04589,7.43158,1.25146
2.08,0.925767,1.80974,6.80478,6.03739,7.42207,1.25295
2.09,0.925916,1.81343,6.79553,6.02889,7.41236,1.25441
2.1,0.926139,1.81709,6.78628,6.02038,7.40271,1.25591
2.11,0.926353,1.82093,6.77702,6.01189,7.3929,1.25736
2.12,0.926523,1.82475,6.76776,6.00337,7.38313,1.25886
2.13,0.926777,1.82821,6.7585,5.99481,7.37355,1.26031
2.14,0.926972,1.832,6.74924,5.98628,7.3638,1.26181
2.15,0.927242,1.83563,6.73998,5.97776,7.35412,1.26324
2.16,0.927457,1.83959,6.73071,5.96925,7.34426,1.26472
2.17,0.927668,1.8434,6.72144,5.96073,7.33443,1.26614
2.18,0.92791,1.8471,6.71217,5.95222,7.32476,1.26761
2.19,0.928094,1.85082,6.7029,5.94369,7.31501,1.26903
2.2,0.928324,1.85462,6.69363,5.93514,7.30525,1.27051
2.21,0.928591,1.8584,6.68435,5.92659,7.29544,1.27194
2.22,0.92884,1.86254,6.67507,5.91805,7.28545,1.27341
2.23,0.929071,1.86635,6.66579,5.90951,7.27563,1.27483
2.24,0.929481,1.87011,6.6565,5.90097,7.26592,1.2763
2.25,0.929741,1.87403,6.64721,5.89243,7.25602,1.27771
2.26,0.929936,1.87797,6.63792,5.88389,7.24619,1.27918
2.27,0.930207,1.882,6.62863,5.87532,7.23618,1.28057
2.28,0.930482,1.88604,6.61933,5.86673,7.22621,1.28202
2.29,0.930719,1.88976,6.61003,5.85816,7.21642,1.2834
2.3,0.931005,1.89383,6.60073,5.8496,7.20648,1.28485
2.31,0.931332,1.89772,6.59143,5.84104,7.19659,1.28623
2.32,0.931616,1.90191,6.58212,5.83248,7.18657,1.28768
2.33,0.931792,1.9061,6.57281,5.82393,7.17649,1.28906
2.34,0.932055,1.91029,6.5635,5.81535,7.16645,1.2905
2.35,0.932307,1.914,6.55418,5.80675,7.15666,1.29187
2.36,0.932516,1.91835,6.54487,5.79817,7.14651,1.2933
2.37,0.932754,1.92233,6.53555,5.78959,7.13655,1.29465
2.38,0.933101,1.92672,6.52623,5.78101,7.12637,1.29607
2.39,0.933279,1.93089,6.5169,5.77242,7.11627,1.29741
2.4,0.933629,1.93515,6.50758,5.76384,7.10618,1.29881
2.41,0.933895,1.93926,6.49824,5.75524,7.09612,1.30015
2.42,0.934062,1.94353,6.48891,5.7466,7.08598,1.30156
2.43,0.934358,1.94767,6.47958,5.73796,7.07588,1.30291
2.44,0.934577,1.95225,6.47024,5.72935,7.06557,1.30431
2.45,0.934769,1.95653,6.4609,5.72074,7.05541,1.30566
2.46,0.935,1.96098,6.45156,5.71215,7.04521,1.30705
2.47,0.935153,1.96534,6.44221,5.70355,7.03501,1.30839
2.48,0.935324,1.96976,6.43287,5.69496,7.02484,1.30977
2.49,0.935494,1.97407,6.42352,5.68633,7.01465,1.3111
2.5,0.935704,1.97881,6.41417,5.6777,7.00423,1.31247
2.51,0.935841,1.98325,6.40483,5.66908,6.99396,1.31378
2.52,0.93603,1.98803,6.39547,5.66047,6.98352,1.31513
2.53,0.936249,1.99254,6.38612,5.65185,6.97322,1.31644
2.54,0.936374,1.99707,6.37676,5.64324,6.96296,1.31778
2.55,0.936538,2.00158,6.3674,5.63463,6.95268,1.31909
2.56,0.936691,2.00648,6.35805,5.62599,6.94216,1.32043
2.57,0.936765,2.01101,6.34869,5.61733,6.93182,1.32173
2.58,0.936809,2.016,6.33932,5.6087,6.92125,1.32305
2.59,0.937075,2.02088,6.32996,5.60007,6.91073,1.32434
2.6,0.937166,2.02554,6.3206,5.59145,6.90039,1.32565
2.61,0.93724,2.0301,6.31123,5.58282,6.89009,1.32694
2.62,0.937332,2.03518,6.30187,5.57421,6.87947,1.32822
2.63,0.93735,2.03988,6.2925,5.56556,6.86905,1.32948
2.64,0.937408,2.04487,6.28314,5.55691,6.85846,1.33075
2.65,0.937478,2.04993,6.27377,5.54826,6.84784,1.33203
2.66,0.937539,2.05492,6.2644,5.53962,6.83727,1.33329
2.67,0.937582,2.0599,6.25503,5.53097,6.82673,1.33456
2.68,0.937606,2.06493,6.24566,5.52233,6.81614,1.33582
2.69,0.937543,2.06988,6.2363,5.51369,6.80563,1.33708
2.7,0.937457,2.07488,6.22693,5.50504,6.79506,1.33832
2.71,0.937429,2.08009,6.21756,5.49635,6.78435,1.33958
2.72,0.937332,2.08515,6.20819,5.48768,6.77373,1.3408
2.73,0.937266,2.09038,6.19883,5.47903,6.76305,1.34204
2.74,0.937216,2.09579,6.18946,5.47038,6.75223,1.34324
2.75,0.937124,2.10097,6.1801,5.46173,6.74158,1.34447
2.76,0.937193,2.10612,6.17073,5.45309,6.73093,1.34564
2.77,0.937168,2.11143,6.16137,5.44443,6.72023,1.34688
2.78,0.937044,2.11673,6.152,5.43576,6.70947,1.34805
2.79,0.936914,2.12195,6.14264,5.42709,6.69884,1.34929
2.8,0.936849,2.12737,6.13328,5.41843,6.68804,1.35046
2.81,0.936759,2.1328,6.12392,5.40977,6.6773,1.3517
2.82,0.936594,2.13812,6.11456,5.40111,6.66657,1.35286
2.83,0.936482,2.14378,6.1052,5.39245,6.65571,1.35408
2.84,0.936198,2.14927,6.09584,5.3838,6.64489,1.35521
2.85,0.936037,2.15473,6.08649,5.37511,6.63412,1.35642
2.86,0.935868,2.16017,6.07714,5.3664,6.62327,1.35752
2.87,0.935673,2.16581,6.06779,5.35771,6.6124,1.35871
2.88,0.935454,2.17126,6.05844,5.34904,6.60158,1.35979
2.89,0.935319,2.17675,6.04909,5.34037,6.59081,1.36094
2.9,0.935138,2.18243,6.03974,5.33171,6.57991,1.36205
2.91,0.934956,2.18799,6.0304,5.32305,6.56913,1.3632
2.92,0.934705,2.19354,6.02106,5.31437,6.55834,1.36434
2.93,0.934515,2.19914,6.01172,5.30567,6.54749,1.36547
2.94,0.934232,2.20473,6.00238,5.29698,6.5367,1.36663
2.95,0.933968,2.21023,5.99305,5.28829,6.5259,1.3677
2.96,0.933727,2.21612,5.98372,5.27961,6.51498,1.36886
2.97,0.933413,2.22171,5.97439,5.27093,6.50413,1.3699
2.98,0.933099,2.2275,5.96506,5.26227,6.49325,1.371
2.99,0.932758,2.23326,5.95574,5.25357,6.4823,1.37204
3,0.932407,2.23894,5.94642,5.24484,6.47134,1.37303
3.01,0.932163,2.24454,5.93711,5.23612,6.4605,1.37408
3.02,0.931793,2.25016,5.92779,5.22743,6.44956,1.375
3.03,0.931525,2.25587,5.91848,5.21873,6.43868,1.37602
3.04,0.931233,2.26151,5.90918,5.21005,6.42782,1.377
3.05,0.930923,2.26696,5.89987,5.20138,6.41703,1.37792
3.06,0.93055,2.27273,5.89057,5.1927,6.4062,1.37898
3.07,0.93024,2.2782,5.88127,5.18399,6.39545,1.37997
3.08,0.929923,2.28359,5.87198,5.17529,6.38469,1.38088
3.09,0.929611,2.2893,5.86269,5.1666,6.37391,1.38195
3.1,0.929225,2.29502,5.8534,5.15791,6.36301,1.38286
3.11,0.928828,2.30051,5.84412,5.14922,6.35224,1.38378
3.12,0.928416,2.30634,5.83484,5.14054,6.34134,1.38474
3.13,0.928011,2.3119,5.82556,5.13185,6.33047,1.38555
3.14,0.927643,2.31742,5.81629,5.12313,6.31965,1.38642
3.15,0.927234,2.32293,5.80702,5.11442,6.30883,1.38727
3.16,0.92686,2.3283,5.79775,5.10573,6.29799,1.38797
3.17,0.92658,2.33375,5.78849,5.09704,6.28721,1.38878
3.18,0.926141,2.33913,5.77924,5.08835,6.27644,1.38955
3.19,0.925694,2.34424,5.76998,5.07966,6.26571,1.3902
3.2,0.92534,2.34926,5.76074,5.07098,6.25498,1.39077
3.21,0.92511,2.35471,5.75149,5.06226,6.2443,1.39168
3.22,0.924887,2.35972,5.74225,5.05355,6.23359,1.39229
3.23,0.924594,2.36477,5.733,5.04484,6.22297,1.39301
3.24,0.924262,2.36994,5.72377,5.03614,6.21237,1.39379
3.25,0.924096,2.3749,5.71453,5.02743,6.20177,1.39447
3.26,0.923772,2.37994,5.7053,5.01872,6.19112,1.39511
3.27,0.923352,2.38522,5.69607,5.01002,6.18052,1.39595
3.28,0.922952,2.39029,5.68684,5.00129,6.16987,1.39661
3.29,0.922425,2.39502,5.67762,4.99254,6.15929,1.39719
3.3,0.921982,2.40027,5.66841,4.98383,6.14869,1.39799
3.31,0.921514,2.4053,5.65919,4.97511,6.13806,1.39862
3.32,0.921111,2.41002,5.64999,4.96641,6.12744,1.39905
3.33,0.920684,2.41529,5.64078,4.9577,6.11684,1.39983
3.34,0.920231,2.42024,5.63159,4.94901,6.10624,1.40038
3.35,0.919835,2.42481,5.62239,4.94029,6.09565,1.40076
3.36,0.91937,2.42983,5.6132,4.93156,6.08509,1.40143
3.37,0.918994,2.43458,5.60402,4.92285,6.07454,1.40195
3.38,0.918698,2.43897,5.59483,4.91414,6.06402,1.40227
3.39,0.91831,2.44377,5.58565,4.90543,6.05354,1.40286
3.4,0.917931,2.44835,5.57648,4.89672,6.04306,1.40332
3.41,0.917619,2.45259,5.5673,4.88802,6.03261,1.40361
3.42,0.917323,2.45713,5.55814,4.8793,6.02218,1.4041
3.43,0.916977,2.46148,5.54897,4.87056,6.01178,1.40456
3.44,0.916547,2.46554,5.53981,4.86183,6.00139,1.40482
3.45,0.916188,2.46979,5.53065,4.85311,5.99104,1.40522
3.46,0.915857,2.47412,5.5215,4.8444,5.9807,1.40566
3.47,0.915559,2.47808,5.51234,4.83569,5.97039,1.40594
3.48,0.915242,2.48206,5.5032,4.82699,5.96009,1.40621
3.49,0.914956,2.48614,5.49405,4.81827,5.94981,1.40658
3.5,0.914767,2.49018,5.48491,4.80953,5.93954,1.40696
3.51,0.914527,2.49368,5.47577,4.8008,5.92931,1.40707
3.52,0.914231,2.49803,5.46663,4.79208,5.91908,1.40765
3.53,0.914099,2.50187,5.45749,4.78335,5.9089,1.40799
3.54,0.91395,2.50531,5.44836,4.77463,5.89875,1.40814
3.55,0.913798,2.50939,5.43923,4.7659,5.88863,1.40868
3.56,0.913564,2.51315,5.4301,4.75718,5.87852,1.40905
3.57,0.913263,2.51651,5.42097,4.74842,5.86843,1.40926
3.58,0.913004,2.52023,5.41184,4.73965,5.85835,1.40969
3.59,0.912773,2.52402,5.40272,4.7309,5.84827,1.41013
3.6,0.912456,2.52745,5.3936,4.72217,5.83818,1.41033
3.61,0.912229,2.53113,5.38448,4.71344,5.82811,1.41068
3.62,0.911973,2.53499,5.37537,4.70472,5.81803,1.4111
3.63,0.911739,2.53853,5.36626,4.69601,5.80794,1.41134
3.64,0.911507,2.54201,5.35714,4.68727,5.79787,1.41157
3.65,0.911291,2.54587,5.34804,4.67852,5.7878,1.41203
3.66,0.911056,2.5493,5.33893,4.6698,5.77773,1.41223
3.67,0.910883,2.55262,5.32982,4.66107,5.76773,1.41244
3.68,0.91063,2.55631,5.32073,4.65234,5.75774,1.41286
3.69,0.910506,2.55959,5.31163,4.64361,5.74775,1.41306
3.7,0.910204,2.56282,5.30252,4.6349,5.73777,1.41324
3.71,0.909981,2.56644,5.29343,4.62615,5.7278,1.41367
3.72,0.909756,2.56948,5.28434,4.61738,5.71785,1.41381
3.73,0.909554,2.57263,5.27525,4.60864,5.70791,1.414
3.74,0.90944,2.57612,5.26616,4.59991,5.69798,1.41437
