time,velocity,ratio,centerX,Xmax,Xmin,Ymax
0,0,0.999999,1.1,0.1,2.1,0.999999
0.01,0.0154653,1.00002,1.09993,0.0999694,2.09994,1.00001
0.02,0.0307359,1.00016,1.09971,0.0999368,2.09968,1.00003
0.03,0.0457455,1.00039,1.09934,0.0998861,2.09925,1.00008
0.04,0.0606596,1.00072,1.09882,0.0998194,2.09864,1.00014
0.05,0.0749661,1.00115,1.09816,0.0997374,2.09786,1.00021
0.06,0.0891101,1.00168,1.09735,0.0996404,2.0969,1.00031
0.07,0.103114,1.00231,1.0964,0.0995291,2.09577,1.00043
0.08,0.117253,1.00304,1.09531,0.099405,2.09448,1.00056
0.09,0.130953,1.00386,1.09409,0.0992695,2.09302,1.00072
0.1,0.14478,1.00478,1.09272,0.0991229,2.09138,1.00089
0.11,0.15815,1.0058,1.09122,0.0989657,2.08958,1.00108
0.12,0.171559,1.00693,1.08959,0.0987987,2.0876,1.00129
0.13,0.184662,1.00817,1.08782,0.0986221,2.08545,1.00153
0.14,0.197553,1.00954,1.08592,0.0984364,2.08312,1.00181
0.15,0.210393,1.01102,1.0839,0.0982419,2.08061,1.00211
0.16,0.222906,1.0126,1.08175,0.0980391,2.07794,1.00243
0.17,0.235424,1.01428,1.07947,0.0978283,2.07513,1.00277
0.18,0.247204,1.01606,1.07707,0.09761,2.07215,1.00312
0.19,0.259355,1.018,1.07455,0.0973849,2.06898,1.00354
0.2,0.271242,1.02008,1.07191,0.0971535,2.06562,1.00399
0.21,0.28302,1.02228,1.06915,0.0969172,2.06206,1.00446
0.22,0.294542,1.02457,1.06627,0.0966752,2.05838,1.00495
0.23,0.305934,1.02699,1.06328,0.0964282,2.05453,1.00548
0.24,0.31688,1.02959,1.06018,0.0961769,2.05048,1.00607
0.25,0.327861,1.03234,1.05697,0.0959219,2.0462,1.00667
0.26,0.33858,1.03519,1.05365,0.0956635,2.04179,1.0073
0.27,0.34918,1.03816,1.05022,0.0954023,2.03726,1.00798
0.28,0.359519,1.04129,1.04669,0.0951382,2.03258,1.00872
0.29,0.369227,1.04457,1.04305,0.094871,2.02768,1.00948
0.3,0.379132,1.04798,1.03932,0.0946004,2.02262,1.01026
0.31,0.388711,1.05159,1.03549,0.0943279,2.01737,1.01113
0.32,0.398113,1.05537,1.03157,0.0940547,2.01192,1.01203
0.33,0.406856,1.05929,1.02755,0.0937819,2.00627,1.01294
0.34,0.415633,1.06342,1.02345,0.093509,2.00044,1.01393
0.35,0.424263,1.06772,1.01926,0.0932356,1.99443,1.01497
0.36,0.432609,1.07216,1.01499,0.0929621,1.98823,1.01602
0.37,0.440851,1.07684,1.01063,0.0926897,1.98181,1.01714
0.38,0.44864,1.0817,1.00619,0.0924182,1.97522,1.01832
0.39,0.456246,1.08674,1.00167,0.0921482,1.96842,1.01951
0.4,0.463621,1.09202,0.997083,0.0918791,1.96146,1.02081
0.41,0.470703,1.09748,0.992419,0.0916117,1.95432,1.02214
0.42,0.47759,1.10314,0.987686,0.0913473,1.94698,1.02351
0.43,0.483887,1.10907,0.982887,0.0910854,1.93943,1.02497
0.44,0.490197,1.11519,0.978025,0.0908253,1.93167,1.02645
0.45,0.496221,1.1216,0.9731,0.090568,1.92368,1.02801
0.46,0.502009,1.12825,0.968116,0.090314,1.91549,1.02963
0.47,0.507299,1.13511,0.963076,0.0900643,1.9071,1.03127
0.48,0.51247,1.14225,0.957984,0.0898191,1.89851,1.03299
0.49,0.51735,1.14964,0.952841,0.089577,1.8897,1.03475
0.5,0.521963,1.1573,0.947651,0.0893369,1.8807,1.03657
0.51,0.526182,1.16525,0.942417,0.0890998,1.87149,1.03847
0.52,0.530215,1.17345,0.937141,0.088867,1.86207,1.04038
0.53,0.533872,1.18201,0.931827,0.0886378,1.85244,1.04241
0.54,0.537346,1.19081,0.926476,0.0884121,1.84263,1.04446
0.55,0.540507,1.19992,0.921092,0.0881923,1.8326,1.04658
0.56,0.543218,1.20935,0.915679,0.0879788,1.82236,1.04874
0.57,0.545862,1.21908,0.910238,0.0877699,1.81189,1.05092
0.58,0.548207,1.22921,0.904773,0.0875644,1.80123,1.05323
0.59,0.550201,1.23966,0.899285,0.0873639,1.79035,1.05556
0.6,0.551942,1.25046,0.893779,0.0871687,1.7793,1.05797
0.61,0.553423,1.26165,0.888256,0.0869774,1.76802,1.06044
0.62,0.554606,1.27314,0.88272,0.0867895,1.75654,1.06292
0.63,0.555506,1.28509,0.877173,0.0866067,1.74485,1.06549
0.64,0.556102,1.29736,0.871618,0.0864293,1.73299,1.06809
0.65,0.556338,1.31004,0.86606,0.0862555,1.72094,1.07075
0.66,0.556468,1.32313,0.860499,0.0860845,1.70872,1.07347
0.67,0.556308,1.3366,0.854938,0.0859171,1.69629,1.07621
0.68,0.555917,1.35052,0.84938,0.0857528,1.68371,1.07904
0.69,0.555257,1.36484,0.843827,0.085591,1.67094,1.08187
0.7,0.554371,1.37955,0.838281,0.085433,1.65803,1.08474
0.71,0.553208,1.39478,0.832746,0.0852803,1.64497,1.08771
0.72,0.551883,1.41039,0.827223,0.0851321,1.63178,1.09068
0.73,0.550371,1.42649,0.821714,0.0849873,1.61843,1.09372
0.74,0.548621,1.44301,0.816221,0.0848467,1.60496,1.09677
0.75,0.54662,1.45998,0.810747,0.0847112,1.59136,1.09984
0.76,0.544445,1.47747,0.805293,0.0845798,1.57767,1.103
0.77,0.542063,1.49544,0.799862,0.0844524,1.56386,1.10618
0.78,0.539517,1.51387,0.794456,0.0843302,1.54994,1.10937
0.79,0.536778,1.53281,0.789076,0.0842131,1.53593,1.1126
0.8,0.533897,1.55222,0.783724,0.084099,1.52188,1.11587
0.81,0.530884,1.57212,0.778402,0.0839877,1.50774,1.11915
0.82,0.527702,1.59248,0.773111,0.0838798,1.49365,1.12252
0.83,0.524287,1.61292,0.767851,0.0837749,1.47986,1.12589
0.84,0.52082,1.63334,0.762626,0.0836728,1.46641,1.12924
0.85,0.517012,1.65387,0.757437,0.0835742,1.45327,1.13265
0.86,0.513265,1.67448,0.752287,0.0834794,1.44045,1.13611
0.87,0.509365,1.6951,0.747176,0.0833878,1.42791,1.13955
0.88,0.505414,1.71568,0.742104,0.0832992,1.41569,1.14298
0.89,0.501408,1.73647,0.73707,0.0832141,1.4037,1.14649
0.9,0.497284,1.75725,0.732076,0.0831329,1.39199,1.15
0.91,0.493079,1.77807,0.727126,0.0830553,1.38053,1.1535
0.92,0.488857,1.79897,0.722218,0.0829809,1.36931,1.15703
0.93,0.484555,1.81997,0.71735,0.0829096,1.3583,1.16059
0.94,0.480202,1.841,0.712527,0.0828409,1.34753,1.16414
0.95,0.475815,1.86207,0.707749,0.0827742,1.33696,1.16769
0.96,0.471357,1.88324,0.703013,0.0827095,1.32661,1.17129
0.97,0.466727,1.90446,0.698322,0.0826473,1.31646,1.17488
0.98,0.462239,1.92573,0.69368,0.0825875,1.3065,1.17847
0.99,0.457729,1.9471,0.689079,0.0825296,1.29671,1.18206
1,0.453137,1.96858,0.684526,0.082474,1.28709,1.1857
1.01,0.448571,1.99005,0.680019,0.0824209,1.27771,1.18935
1.02,0.443929,2.01155,0.675555,0.0823701,1.2685,1.19298
1.03,0.439246,2.03314,0.671142,0.0823218,1.25942,1.1966
1.04,0.434629,2.05475,0.666771,0.0822762,1.25052,1.20022
1.05,0.429894,2.07648,0.662451,0.082233,1.24179,1.2039
1.06,0.425164,2.09827,0.658176,0.0821916,1.23319,1.20755
1.07,0.420517,2.12007,0.653948,0.082152,1.22475,1.21119
1.08,0.415861,2.14185,0.649767,0.0821139,1.21649,1.21483
1.09,0.411224,2.16374,0.645632,0.0820773,1.20834,1.21847
1.1,0.406635,2.18568,0.641544,0.0820421,1.20035,1.22214
1.11,0.402025,2.20767,0.637501,0.0820084,1.1925,1.2258
1.12,0.397409,2.22976,0.633505,0.0819762,1.18475,1.22945
1.13,0.392833,2.25176,0.629554,0.0819453,1.17717,1.23309
1.14,0.388347,2.27391,0.625649,0.081916,1.16964,1.23669
1.15,0.383857,2.29601,0.621789,0.0818885,1.16234,1.24037
1.16,0.379366,2.31837,0.617973,0.0818627,1.15506,1.24404
1.17,0.374958,2.3405,0.614203,0.0818384,1.14803,1.24771
1.18,0.370566,2.36291,0.610474,0.0818157,1.14097,1.25135
1.19,0.366185,2.38502,0.606793,0.0817942,1.13416,1.25496
1.2,0.361812,2.40749,0.603152,0.081774,1.12733,1.25859
1.21,0.357534,2.42984,0.599558,0.0817549,1.12072,1.26226
1.22,0.35325,2.45238,0.596003,0.0817369,1.11412,1.2659
1.23,0.349086,2.47477,0.592492,0.0817199,1.10768,1.26951
1.24,0.344965,2.49724,0.589023,0.0817039,1.10133,1.27312
1.25,0.340827,2.5197,0.585592,0.0816888,1.09508,1.27672
1.26,0.33682,2.54217,0.582208,0.0816747,1.08894,1.28031
1.27,0.332794,2.56482,0.578859,0.0816617,1.08285,1.28393
1.28,0.328759,2.58739,0.575552,0.08165,1.07689,1.28754
1.29,0.324881,2.61014,0.572285,0.0816394,1.07097,1.29114
1.3,0.321008,2.63272,0.569055,0.0816299,1.0652,1.29473
1.31,0.317126,2.65544,0.565866,0.0816215,1.05945,1.29829
1.32,0.313381,2.67803,0.562714,0.0816139,1.05383,1.30182
1.33,0.309662,2.70088,0.559597,0.0816072,1.04825,1.30539
1.34,0.305951,2.72375,0.556523,0.0816013,1.04277,1.30899
1.35,0.302303,2.74656,0.553481,0.0815961,1.0374,1.31259
1.36,0.298718,2.7695,0.550475,0.0815916,1.03203,1.31612
1.37,0.295166,2.79218,0.547509,0.0815876,1.02684,1.31965
1.38,0.291547,2.81508,0.544575,0.0815843,1.02165,1.32318
1.39,0.288079,2.83808,0.541676,0.0815817,1.01651,1.3267
1.4,0.284658,2.86083,0.538816,0.0815799,1.01151,1.33019
1.41,0.281341,2.88397,0.535986,0.0815787,1.0065,1.33373
1.42,0.278055,2.90704,0.533188,0.0815783,1.00159,1.33725
1.43,0.274755,2.93004,0.530427,0.0815785,0.996763,1.34076
1.44,0.271585,2.95331,0.527696,0.0815794,0.991917,1.34425
1.45,0.268448,2.97632,0.524994,0.0815808,0.987199,1.34771
1.46,0.265349,2.99938,0.522327,0.0815828,0.982537,1.35115
1.47,0.262329,3.02264,0.519691,0.0815852,0.977879,1.35459
1.48,0.259259,3.04566,0.517082,0.081588,0.973375,1.35804
1.49,0.256267,3.06889,0.514504,0.0815913,0.968875,1.36149
1.5,0.253377,3.09225,0.511959,0.0815949,0.964402,1.36493
1.51,0.250518,3.11541,0.509439,0.081599,0.960047,1.36837
1.52,0.247631,3.13879,0.506947,0.0816035,0.955692,1.37179
1.53,0.244839,3.16222,0.504487,0.0816084,0.951377,1.3752
1.54,0.24206,3.18541,0.502054,0.0816138,0.947166,1.37857
1.55,0.239338,3.20881,0.499647,0.0816195,0.942953,1.38193
1.56,0.236731,3.23233,0.497265,0.0816257,0.938767,1.38528
1.57,0.234127,3.25572,0.494914,0.0816322,0.934701,1.38868
1.58,0.231594,3.27933,0.492586,0.081639,0.93062,1.39205
1.59,0.229112,3.30315,0.490282,0.0816461,0.926534,1.3954
1.6,0.22663,3.32656,0.488002,0.0816536,0.922604,1.39874
1.61,0.2242,3.35019,0.485751,0.0816612,0.918665,1.40206
1.62,0.221764,3.37398,0.483522,0.0816691,0.914733,1.40537
1.63,0.219437,3.39743,0.481315,0.0816772,0.910916,1.40864
1.64,0.217112,3.421,0.479131,0.0816856,0.907118,1.4119
1.65,0.21486,3.44483,0.476975,0.0816942,0.903307,1.41516
1.66,0.212598,3.46871,0.474838,0.0817031,0.899564,1.41846
1.67,0.210385,3.49247,0.472722,0.0817122,0.895888,1.42174
1.68,0.208239,3.51643,0.470628,0.0817215,0.892194,1.42499
1.69,0.206126,3.54056,0.468559,0.081731,0.888511,1.42823
1.7,0.20402,3.56437,0.466509,0.0817408,0.884945,1.43146
1.71,0.201963,3.58837,0.464478,0.0817507,0.881378,1.43468
1.72,0.199959,3.61263,0.462467,0.0817608,0.877789,1.43788
1.73,0.197947,3.63666,0.460479,0.0817711,0.874277,1.44104
1.74,0.195931,3.66069,0.458512,0.0817815,0.870806,1.44419
1.75,0.193943,3.68499,0.456563,0.0817921,0.867339,1.44737
1.76,0.19202,3.70962,0.454631,0.0818029,0.863848,1.45055
1.77,0.190153,3.73384,0.452719,0.0818137,0.860476,1.4537
1.78,0.188317,3.75816,0.45083,0.0818248,0.857112,1.45683
1.79,0.186527,3.78253,0.448957,0.081836,0.853774,1.45994
1.8,0.184746,3.80702,0.4471,0.0818473,0.850447,1.46304
1.81,0.183023,3.83124,0.445259,0.0818587,0.847209,1.46612
1.82,0.181308,3.85573,0.443437,0.0818704,0.843946,1.46918
1.83,0.179662,3.88029,0.441636,0.0818821,0.84069,1.4722
1.84,0.17799,3.90494,0.439848,0.081894,0.837454,1.47521
1.85,0.176384,3.9294,0.438075,0.0819061,0.83431,1.47825
1.86,0.174767,3.95424,0.436318,0.0819183,0.831134,1.48129
1.87,0.173208,3.9793,0.434578,0.0819306,0.827945,1.48431
1.88,0.171639,4.00433,0.432857,0.081943,0.824783,1.48729
1.89,0.170108,4.02899,0.431149,0.0819556,0.821725,1.49026
1.9,0.168562,4.05389,0.429455,0.0819682,0.818653,1.49322
1.91,0.167046,4.07913,0.427775,0.081981,0.81555,1.49616
1.92,0.165569,4.10455,0.426112,0.081994,0.812446,1.49909
1.93,0.164089,4.12952,0.424467,0.082007,0.809438,1.50197
1.94,0.162647,4.15444,0.422834,0.0820203,0.806466,1.50483
1.95,0.161257,4.17983,0.421213,0.0820336,0.803462,1.50772
1.96,0.159846,4.2056,0.419606,0.0820471,0.80043,1.51062
1.97,0.158449,4.2313,0.418014,0.0820607,0.797436,1.51348
1.98,0.15699,4.25661,0.41644,0.0820745,0.79453,1.51632
1.99,0.15566,4.28186,0.414878,0.0820884,0.791655,1.51913
2,0.154306,4.30736,0.413327,0.0821025,0.788766,1.52193
2.01,0.152974,4.33308,0.411789,0.0821013,0.785849,1.5247
2.02,0.151652,4.35754,0.410265,0.0819109,0.782969,1.52745
2.03,0.150304,4.38182,0.408757,0.0817174,0.780137,1.53017
2.04,0.148995,4.40596,0.407263,0.081522,0.777334,1.53286
2.05,0.147727,4.43035,0.405779,0.0813303,0.774528,1.53556
2.06,0.146435,4.45511,0.404307,0.0811296,0.771696,1.53827
2.07,0.145166,4.47995,0.402847,0.0809354,0.768875,1.54097
2.08,0.143898,4.50453,0.401402,0.0807365,0.766109,1.54364
2.09,0.142595,4.52901,0.399972,0.0805365,0.76337,1.54628
2.1,0.141315,4.55345,0.398554,0.0803428,0.760653,1.54888
2.11,0.140048,4.57804,0.397147,0.0801376,0.757921,1.55146
2.12,0.138839,4.60291,0.395751,0.0799382,0.755172,1.55402
2.13,0.137582,4.62766,0.394367,0.0797405,0.752458,1.55655
2.14,0.136352,4.65216,0.392998,0.0795345,0.749788,1.55906
2.15,0.135141,4.67669,0.391644,0.0793353,0.747152,1.56159
2.16,0.133884,4.7013,0.3903,0.0791331,0.744524,1.5641
2.17,0.132693,4.72613,0.388966,0.078927,0.741874,1.56659
2.18,0.131469,4.75118,0.387644,0.0787271,0.739215,1.56905
2.19,0.130244,4.77615,0.386334,0.0785215,0.736575,1.57148
2.2,0.129027,4.80074,0.385038,0.0783146,0.733997,1.57388
2.21,0.127819,4.82502,0.383757,0.0781141,0.731478,1.57625
2.22,0.126564,4.84913,0.382486,0.0779057,0.728984,1.57858
2.23,0.125364,4.87334,0.381226,0.077695,0.72648,1.58087
2.24,0.12416,4.89773,0.379976,0.0774876,0.723967,1.58314
2.25,0.122935,4.92231,0.378739,0.0772794,0.721459,1.58543
2.26,0.121712,4.94683,0.377515,0.0770605,0.718972,1.58772
2.27,0.120455,4.97126,0.376307,0.0768466,0.716513,1.58997
2.28,0.119224,4.99553,0.375109,0.0766371,0.714088,1.5922
2.29,0.117942,5.01956,0.373922,0.0764179,0.71169,1.59439
2.3,0.116724,5.04369,0.372747,0.0761984,0.709282,1.59654
2.31,0.115465,5.0679,0.371583,0.0759839,0.706876,1.59865
2.32,0.114244,5.09208,0.370433,0.0757729,0.704487,1.60073
2.33,0.112962,5.11596,0.369297,0.0755488,0.702128,1.60278
2.34,0.111716,5.13968,0.368175,0.0753303,0.699801,1.60479
2.35,0.110392,5.16367,0.367064,0.0751178,0.697484,1.60685
2.36,0.109093,5.18764,0.365965,0.0749022,0.695171,1.60887
2.37,0.107779,5.21146,0.364878,0.0746783,0.692871,1.61084
2.38,0.106515,5.23517,0.363804,0.0744605,0.690594,1.61278
2.39,0.105205,5.25872,0.362744,0.0742492,0.688345,1.61468
2.4,0.1039,5.28193,0.3617,0.0740275,0.68613,1.61654
2.41,0.102582,5.305,0.360668,0.0738023,0.683931,1.61836
2.42,0.101248,5.3278,0.359649,0.0735829,0.68177,1.62015
2.43,0.0999029,5.35065,0.358641,0.0733699,0.679612,1.6219
2.44,0.0985676,5.37343,0.357646,0.0731398,0.677465,1.62365
2.45,0.0972027,5.39623,0.356664,0.0729131,0.675338,1.62541
2.46,0.0958216,5.41879,0.355697,0.0726928,0.673239,1.62712
2.47,0.0944407,5.44107,0.354746,0.0724747,0.671175,1.62879
2.48,0.0930336,5.46277,0.35381,0.0722414,0.66916,1.63041
2.49,0.0916283,5.48423,0.352886,0.0720127,0.667173,1.632
2.5,0.0902301,5.5056,0.351975,0.0717898,0.6652,1.63354
2.51,0.0887846,5.5268,0.351077,0.071567,0.663243,1.63504
2.52,0.087363,5.54768,0.350194,0.0713301,0.661307,1.6365
2.53,0.0859058,5.56847,0.349325,0.0710982,0.659393,1.63795
2.54,0.0844439,5.58918,0.348471,0.0708722,0.657515,1.63943
2.55,0.0829684,5.60939,0.347634,0.0706407,0.655685,1.64087
2.56,0.0814898,5.62917,0.346812,0.0703991,0.653874,1.64224
2.57,0.0799899,5.64877,0.346005,0.0701628,0.652084,1.64357
2.58,0.0784918,5.66807,0.345211,0.069931,0.650326,1.64486
2.59,0.0769806,5.6869,0.344432,0.0696923,0.648602,1.6461
2.6,0.075484,5.70529,0.343667,0.0694474,0.646911,1.6473
2.61,0.0739584,5.72331,0.342916,0.0692059,0.645254,1.64845
2.62,0.0724238,5.74099,0.342182,0.0689684,0.643628,1.64956
2.63,0.0708918,5.7586,0.341463,0.0687232,0.642029,1.65072
2.64,0.0693398,5.77581,0.340761,0.0684722,0.640458,1.65184
2.65,0.067778,5.7925,0.340077,0.0682261,0.638932,1.65291
2.66,0.0662098,5.80878,0.339407,0.0679847,0.637443,1.65393
2.67,0.0646181,5.8245,0.338752,0.0677337,0.635992,1.65491
2.68,0.0630289,5.83964,0.338113,0.0674745,0.63458,1.65585
2.69,0.0614155,5.85434,0.337488,0.0672216,0.633207,1.65674
2.7,0.0598154,5.86856,0.33688,0.066974,0.631872,1.65757
2.71,0.058184,5.88216,0.336287,0.0667166,0.630573,1.65834
2.72,0.0565795,5.89526,0.335711,0.0664489,0.629305,1.65909
2.73,0.0549372,5.90781,0.335151,0.0661875,0.62811,1.65987
2.74,0.0533183,5.91991,0.334608,0.0659319,0.62695,1.66059
2.75,0.0516716,5.93154,0.334081,0.0656716,0.625816,1.66126
2.76,0.0500369,5.94258,0.333573,0.0653963,0.624709,1.66188
2.77,0.0483791,5.95281,0.333082,0.0651261,0.623668,1.66245
2.78,0.0467051,5.9626,0.332606,0.0648603,0.622658,1.66296
2.79,0.0450742,5.97182,0.332147,0.0645984,0.62169,1.66343
2.8,0.043432,5.98018,0.331704,0.0643142,0.620765,1.66384
2.81,0.041786,5.988,0.331278,0.0640337,0.61988,1.6642
2.82,0.0401408,5.995,0.330867,0.0637562,0.619072,1.66456
2.83,0.0384952,6.00168,0.330473,0.0634821,0.618302,1.66493
2.84,0.036844,6.00769,0.330095,0.063196,0.617566,1.66524
2.85,0.0351962,6.01285,0.329734,0.0629071,0.616891,1.66551
2.86,0.0335448,6.01724,0.329389,0.0626171,0.616268,1.66573
2.87,0.0319035,6.02108,0.32906,0.0623281,0.615679,1.66589
2.88,0.0302586,6.02423,0.328748,0.0620495,0.615146,1.66599
2.89,0.0286175,6.02653,0.328453,0.0617635,0.614665,1.66604
2.9,0.0269788,6.02838,0.328174,0.0614796,0.614211,1.66604
2.91,0.0253478,6.02928,0.327911,0.061194,0.613826,1.66599
2.92,0.0237088,6.02956,0.327665,0.0609023,0.613476,1.66589
2.93,0.0220653,6.02908,0.327435,0.0605863,0.613166,1.66578
2.94,0.0204315,6.02805,0.327221,0.0602726,0.612918,1.66569
2.95,0.0187991,6.02676,0.327024,0.0599737,0.612694,1.66556
2.96,0.0171756,6.02459,0.326843,0.0596826,0.612542,1.66538
2.97,0.0155582,6.02194,0.326678,0.0593938,0.612419,1.66514
2.98,0.0139493,6.01839,0.326529,0.0590963,0.612355,1.66486
2.99,0.0123514,6.01399,0.326397,0.058777,0.612332,1.66454
3,0.0107676,6.00888,0.32628,0.0584602,0.612362,1.66417
3.01,0.00919176,6.0031,0.32618,0.0581447,0.612441,1.66375
3.02,0.00760262,5.99662,0.326094,0.0578303,0.612571,1.66328
3.03,0.00604119,5.98944,0.326025,0.0575158,0.612751,1.66277
3.04,0.0044888,5.98127,0.325972,0.0571745,0.612984,1.66222
3.05,0.00291464,5.97257,0.325934,0.0568397,0.613263,1.66164
3.06,0.00137459,5.96338,0.325912,0.0565136,0.613603,1.66107
3.07,-0.000164928,5.95381,0.325906,0.0561918,0.61398,1.66048
3.08,-0.00168286,5.94338,0.325915,0.0558703,0.614427,1.65986
3.09,-0.00317247,5.93242,0.325939,0.0555473,0.614915,1.6592
3.1,-0.0046646,5.92077,0.325977,0.0552193,0.615453,1.65851
3.11,-0.00613767,5.90828,0.326031,0.0548754,0.61605,1.65779
3.12,-0.00759233,5.89534,0.3261,0.0545366,0.616689,1.65704
3.13,-0.00902562,5.88188,0.326183,0.0542009,0.617381,1.65628
3.14,-0.0104432,5.86762,0.32628,0.0538654,0.618128,1.65544
3.15,-0.011843,5.85291,0.326391,0.0535327,0.618919,1.65458
3.16,-0.0132205,5.83768,0.326516,0.0532033,0.619757,1.65368
3.17,-0.0145839,5.82182,0.326654,0.0528755,0.620649,1.65274
3.18,-0.0159361,5.80541,0.326805,0.0525492,0.62159,1.65176
3.19,-0.0172709,5.78838,0.326969,0.0522107,0.622576,1.65074
3.2,-0.0186054,5.7707,0.327146,0.0518574,0.623607,1.6497
3.21,-0.0198949,5.75255,0.327335,0.0515044,0.624685,1.64862
3.22,-0.0211444,5.73411,0.327538,0.0511561,0.625807,1.64755
3.23,-0.0223846,5.71537,0.327755,0.050813,0.626973,1.64648
3.24,-0.0236098,5.69622,0.327986,0.0504739,0.628182,1.64538
3.25,-0.02481,5.67673,0.328229,0.0501381,0.629434,1.64425
3.26,-0.0259892,5.65691,0.328484,0.0498054,0.630727,1.64311
3.27,-0.0271529,5.63676,0.328752,0.0494758,0.63206,1.64194
3.28,-0.0282863,5.61637,0.329032,0.0491492,0.633434,1.64078
3.29,-0.0293955,5.59558,0.329321,0.0488258,0.634847,1.63957
3.3,-0.0305156,5.57452,0.32962,0.0485062,0.636303,1.63834
3.31,-0.0315958,5.55312,0.329928,0.0481903,0.637798,1.63708
3.32,-0.0326565,5.53145,0.330245,0.0478781,0.639331,1.6358
3.33,-0.0336957,5.50952,0.330572,0.0475693,0.640902,1.63449
3.34,-0.0347123,5.48734,0.330915,0.0472632,0.642513,1.63317
3.35,-0.0357031,5.46492,0.33127,0.0469595,0.644162,1.63183
3.36,-0.0366715,5.44229,0.331635,0.046657,0.645845,1.63048
3.37,-0.037619,5.4194,0.332009,0.0463525,0.647566,1.62911
3.38,-0.0385455,5.39635,0.33239,0.0460491,0.64932,1.62773
3.39,-0.0394449,5.37319,0.332779,0.0457526,0.651109,1.62635
3.4,-0.0403069,5.35003,0.333176,0.0454582,0.652933,1.625
3.41,-0.0411281,5.32636,0.333579,0.045168,0.654793,1.62354
3.42,-0.0419482,5.30263,0.333991,0.0448785,0.65669,1.62211
3.43,-0.0427246,5.27871,0.334416,0.0445974,0.658625,1.62064
3.44,-0.0434727,5.25466,0.334848,0.0443231,0.660598,1.61916
3.45,-0.0441931,5.2304,0.335288,0.0440544,0.662618,1.61767
3.46,-0.0448834,5.20603,0.335734,0.0437903,0.664675,1.61617
3.47,-0.045539,5.18189,0.336186,0.0435241,0.666723,1.61467
3.48,-0.046164,5.15806,0.336643,0.0432637,0.668762,1.61318
