time,velocity,ratio,centerX,Xmax,Xmin,Ymax
0,0,0.99998,1.1,0.1,2.1,0.99998
0.01,0.015434,1.00003,1.09992,0.0999873,2.09991,0.999989
0.02,0.0307279,1.00017,1.0997,0.0999561,2.09965,1.00001
0.03,0.0457132,1.0004,1.09932,0.0998932,2.09921,1.00006
0.04,0.0604122,1.00072,1.09879,0.0997752,2.09859,1.00012
0.05,0.0745119,1.00114,1.09811,0.0996533,2.09778,1.0002
0.06,0.0885449,1.00163,1.0973,0.0994644,2.09681,1.00031
0.07,0.10229,1.00221,1.09635,0.0992093,2.09567,1.00043
0.08,0.115703,1.00286,1.09526,0.0989037,2.09437,1.00059
0.09,0.128603,1.00359,1.09404,0.0985242,2.0929,1.00077
0.1,0.141734,1.00438,1.09269,0.0980437,2.09126,1.00097
0.11,0.154356,1.00522,1.09121,0.0974705,2.08946,1.0012
0.12,0.166499,1.00614,1.08961,0.096813,2.08749,1.00145
0.13,0.178687,1.00711,1.08789,0.0960517,2.08537,1.00173
0.14,0.190356,1.00815,1.08604,0.0951722,2.08308,1.00205
0.15,0.20178,1.00922,1.08409,0.0941689,2.08062,1.00238
0.16,0.213128,1.01034,1.08201,0.0930795,2.07801,1.00273
0.17,0.223739,1.01152,1.07983,0.0919081,2.07523,1.00308
0.18,0.234289,1.01271,1.07754,0.0906528,2.07234,1.00344
0.19,0.244591,1.01393,1.07515,0.0893086,2.06932,1.0038
0.2,0.254545,1.0152,1.07266,0.0878407,2.06614,1.00419
0.21,0.264139,1.01651,1.07006,0.0862863,2.06281,1.00458
0.22,0.273733,1.01786,1.06738,0.0846614,2.05933,1.00497
0.23,0.282893,1.01922,1.0646,0.0829556,2.05572,1.00534
0.24,0.291825,1.02056,1.06172,0.081135,2.05198,1.00569
0.25,0.300382,1.02188,1.05876,0.0792257,2.04821,1.00603
0.26,0.30884,1.02324,1.05572,0.0772773,2.04436,1.0064
0.27,0.317003,1.0246,1.05259,0.0752623,2.04042,1.00675
0.28,0.324669,1.02594,1.04939,0.0731593,2.03641,1.00709
0.29,0.332049,1.02725,1.0461,0.0709905,2.03234,1.0074
0.3,0.339283,1.02853,1.04275,0.068797,2.0283,1.0077
0.31,0.346257,1.0298,1.03932,0.0665441,2.02426,1.00803
0.32,0.352775,1.03105,1.03583,0.0642814,2.02021,1.00833
0.33,0.359159,1.0323,1.03227,0.06202,2.01614,1.00862
0.34,0.3652,1.03352,1.02865,0.0597243,2.01204,1.00888
0.35,0.370947,1.03475,1.02497,0.0574074,2.00799,1.00918
0.36,0.376385,1.03593,1.02123,0.0550684,2.00396,1.00946
0.37,0.381433,1.03709,1.01744,0.0527141,1.99993,1.00972
0.38,0.386156,1.03832,1.01361,0.0504095,1.99578,1.00996
0.39,0.390589,1.03956,1.00972,0.0481171,1.99168,1.01023
0.4,0.394658,1.0408,1.0058,0.0458647,1.9876,1.01048
0.41,0.398338,1.04206,1.00183,0.0436339,1.98345,1.0107
0.42,0.401731,1.0434,0.997834,0.0414542,1.97922,1.01094
0.43,0.404679,1.0448,0.993803,0.0393806,1.97502,1.01117
0.44,0.406941,1.04624,0.989744,0.0373859,1.97079,1.0114
0.45,0.409106,1.04775,0.985665,0.0354002,1.96644,1.01163
0.46,0.410885,1.04937,0.981565,0.0335095,1.96204,1.01187
0.47,0.412251,1.05105,0.97745,0.0317705,1.95767,1.01211
0.48,0.413203,1.0528,0.973324,0.030132,1.95326,1.01233
0.49,0.413716,1.05471,0.96919,0.0285345,1.94871,1.01262
0.5,0.41378,1.05668,0.965053,0.0270428,1.94416,1.01289
0.51,0.413353,1.0587,0.960918,0.0256495,1.93961,1.01316
0.52,0.41252,1.0609,0.956789,0.0244248,1.935,1.01347
0.53,0.411155,1.06318,0.952671,0.0232149,1.93029,1.01379
0.54,0.409378,1.06554,0.948569,0.0221596,1.92565,1.01412
0.55,0.406995,1.068,0.944487,0.02119,1.92096,1.01448
0.56,0.404276,1.07064,0.940431,0.0203553,1.9162,1.01489
0.57,0.400856,1.07335,0.936405,0.0196044,1.91143,1.0153
0.58,0.397066,1.07606,0.932415,0.0188468,1.9067,1.01573
0.59,0.392832,1.079,0.928465,0.0182866,1.90195,1.01623
0.6,0.388128,1.08198,0.92456,0.0177317,1.89714,1.01675
0.61,0.382954,1.08498,0.920705,0.0172063,1.8924,1.01728
0.62,0.377226,1.08802,0.916904,0.0166961,1.88772,1.01786
0.63,0.371103,1.09118,0.913162,0.0163026,1.88303,1.01847
0.64,0.364574,1.09431,0.909483,0.0158828,1.87841,1.01909
0.65,0.357494,1.09749,0.905873,0.0155737,1.87385,1.01972
0.66,0.349969,1.10077,0.902335,0.0153313,1.8693,1.0204
0.67,0.341976,1.10405,0.898875,0.0151197,1.86481,1.02108
0.68,0.333591,1.10726,0.895497,0.0148835,1.86042,1.02174
0.69,0.324713,1.11043,0.892205,0.014622,1.8561,1.02241
0.7,0.315343,1.11365,0.889004,0.0143787,1.85182,1.02313
0.71,0.305601,1.11683,0.885898,0.0141087,1.84755,1.02382
0.72,0.295598,1.11994,0.882892,0.0138637,1.84345,1.02451
0.73,0.285301,1.12295,0.879987,0.0135955,1.83944,1.02517
0.74,0.274491,1.12599,0.877187,0.0133568,1.83553,1.02587
0.75,0.263421,1.12895,0.874497,0.0131088,1.83167,1.02653
0.76,0.25223,1.13178,0.871917,0.0128521,1.828,1.02717
0.77,0.240734,1.13445,0.869452,0.0126297,1.82454,1.02776
0.78,0.228932,1.13703,0.867103,0.012393,1.82123,1.02835
0.79,0.216938,1.13944,0.864873,0.0121556,1.81808,1.02887
0.8,0.204498,1.1418,0.862765,0.0119482,1.81504,1.02938
0.81,0.191868,1.14397,0.860782,0.011728,1.81227,1.02988
0.82,0.179338,1.14595,0.858925,0.0115174,1.8097,1.03031
0.83,0.166602,1.14774,0.857195,0.0113057,1.80736,1.0307
0.84,0.153762,1.14947,0.855592,0.0111123,1.80512,1.03108
0.85,0.140932,1.15097,0.854118,0.0109026,1.80313,1.0314
0.86,0.127928,1.15232,0.852773,0.0106975,1.80128,1.03166
0.87,0.114939,1.15343,0.851558,0.0104818,1.79975,1.0319
0.88,0.101743,1.15438,0.850474,0.0102794,1.79842,1.03209
0.89,0.0888163,1.1551,0.84952,0.0100832,1.79731,1.03221
0.9,0.0758078,1.15562,0.848696,0.00987486,1.79644,1.03229
0.91,0.06289,1.15601,0.848002,0.00967388,1.79569,1.03233
0.92,0.0500263,1.15621,0.847437,0.00947149,1.79517,1.03232
0.93,0.0371869,1.15614,0.847,0.00926762,1.79497,1.03226
0.94,0.0247039,1.15591,0.84669,0.00906721,1.79492,1.03214
0.95,0.0122211,1.15557,0.846504,0.0088658,1.79497,1.03198
0.96,-2.90308e-05,1.15505,0.846443,0.00867292,1.79525,1.03179
0.97,-0.0120465,1.15438,0.846502,0.0084696,1.7957,1.03157
0.98,-0.0237685,1.15357,0.84668,0.00826752,1.7963,1.03131
0.99,-0.0351359,1.15262,0.846973,0.00807641,1.79707,1.03102
1,-0.0464554,1.15148,0.84738,0.00788058,1.79808,1.03069
1.01,-0.0574089,1.1502,0.847898,0.00768878,1.79926,1.03033
1.02,-0.0680926,1.14883,0.848525,0.00749544,1.80053,1.02995
1.03,-0.0784137,1.14738,0.849257,0.00730519,1.80192,1.02955
1.04,-0.0880901,1.14581,0.850088,0.00710846,1.80345,1.02914
1.05,-0.0974804,1.14413,0.851015,0.00690383,1.80511,1.02869
1.06,-0.106389,1.14234,0.852033,0.00669828,1.80692,1.02824
1.07,-0.114977,1.14049,0.853139,0.00648411,1.80881,1.02776
1.08,-0.123114,1.13857,0.854329,0.00627051,1.81076,1.02727
1.09,-0.130651,1.13659,0.855596,0.0060572,1.81279,1.02676
1.1,-0.137924,1.13456,0.856938,0.00584352,1.81489,1.02623
1.11,-0.14483,1.13246,0.858351,0.00562947,1.81707,1.02569
1.12,-0.151122,1.13035,0.85983,0.00541674,1.81929,1.02516
1.13,-0.157089,1.12815,0.86137,0.00520458,1.82168,1.02462
1.14,-0.16254,1.12595,0.862968,0.004995,1.82405,1.02408
1.15,-0.167596,1.1238,0.864617,0.00478632,1.8264,1.02356
1.16,-0.17214,1.12164,0.866315,0.00458558,1.82879,1.02305
1.17,-0.176274,1.11945,0.868056,0.00438678,1.83126,1.02255
1.18,-0.179689,1.11724,0.869835,0.00419064,1.83379,1.02205
1.19,-0.182821,1.11501,0.871647,0.00399884,1.83636,1.02155
1.2,-0.185398,1.11209,0.873488,0.00274747,1.83902,1.02105
1.21,-0.18753,1.10889,0.875352,0.00108927,1.84175,1.02055
1.22,-0.189196,1.10628,0.877234,0.000318622,1.84448,1.02008
1.23,-0.190456,1.10396,0.879132,-0,1.84717,1.0196
1.24,-0.191285,1.10181,0.88104,-0,1.84987,1.01911
1.25,-0.19166,1.09967,0.882955,-0,1.85258,1.01862
1.26,-0.191573,1.09757,0.88487,-0,1.85524,1.01813
1.27,-0.190995,1.0955,0.886783,1.18317e-05,1.8579,1.01766
1.28,-0.189955,1.09347,0.888687,-0,1.86052,1.01721
1.29,-0.188553,1.09148,0.890579,-0,1.86308,1.01676
1.3,-0.186741,1.08952,0.892455,-0,1.8656,1.0163
1.31,-0.184807,1.08762,0.894312,0.000106217,1.86812,1.01584
1.32,-0.182329,1.0858,0.896147,0.000328643,1.87062,1.01538
1.33,-0.179451,1.08401,0.897956,0.000564131,1.87306,1.0149
1.34,-0.17624,1.08206,0.899734,0.000492834,1.87549,1.01442
1.35,-0.172697,1.08029,0.901478,0.000659583,1.87789,1.01398
1.36,-0.168958,1.07872,0.903186,0.00115458,1.8803,1.01354
1.37,-0.164917,1.0765,0.904855,0.000480222,1.88268,1.0131
1.38,-0.160623,1.0748,0.906483,0.000615054,1.885,1.01267
1.39,-0.156174,1.0734,0.908066,0.00114265,1.88725,1.01228
1.4,-0.151619,1.07136,0.909605,0.000458054,1.88943,1.01189
1.41,-0.146769,1.06987,0.911097,0.000649132,1.89155,1.01151
1.42,-0.141757,1.06862,0.912539,0.00112858,1.89361,1.01117
1.43,-0.136556,1.06681,0.913931,0.000460051,1.89558,1.01087
1.44,-0.131218,1.06559,0.915269,0.000655651,1.89747,1.01061
1.45,-0.125705,1.06455,0.916554,0.00109377,1.89931,1.01038
1.46,-0.120045,1.06294,0.917782,0.000383222,1.9011,1.01018
1.47,-0.114258,1.06202,0.918954,0.000770523,1.90278,1.00999
1.48,-0.108344,1.06095,0.920067,0.000827635,1.90443,1.00982
1.49,-0.102354,1.05967,0.92112,0.000380685,1.90597,1.00965
1.5,-0.0963042,1.05908,0.922113,0.000939788,1.90733,1.00951
1.51,-0.0901948,1.05802,0.923046,0.000540604,1.90859,1.00938
1.52,-0.0840278,1.05728,0.923917,0.000592084,1.90976,1.00926
1.53,-0.0778143,1.05683,0.924726,0.000973723,1.9108,1.00918
1.54,-0.0715743,1.0559,0.925473,0.000317651,1.91169,1.00911
1.55,-0.0653203,1.05574,0.926157,0.000882674,1.91242,1.00904
1.56,-0.0590622,1.05512,0.926779,0.000406313,1.91298,1.009
1.57,-0.0529206,1.05507,0.927339,0.000753266,1.91338,1.00898
1.58,-0.0467011,1.05474,0.927837,0.000452905,1.91367,1.00898
1.59,-0.0405196,1.05477,0.928274,0.000684109,1.91386,1.00898
1.6,-0.0343802,1.05462,0.928648,0.000462873,1.91398,1.00902
1.61,-0.028295,1.05475,0.928962,0.00065187,1.91403,1.00907
1.62,-0.0223614,1.05464,0.929215,0.000333698,1.91405,1.00914
1.63,-0.0164153,1.05494,0.929409,0.000722138,1.91403,1.00921
1.64,-0.0108954,1.0548,0.929546,0.000167328,1.9139,1.0093
1.65,-0.00511472,1.05528,0.929626,0.000658107,1.91373,1.00941
1.66,0.000485033,1.0554,0.929649,0.000449974,1.91352,1.00953
