time,velocity,ratio,centerX,Xmax,Xmin,Ymax
0,0,1,2.75,1.75,3.75,1
0.01,0.0194731,1,2.7499,1.74991,3.7499,1
0.02,0.0388184,1.00001,2.74962,1.74962,3.74961,1
0.03,0.0580069,1.00003,2.74913,1.74916,3.74911,1
0.04,0.0770459,1.00005,2.74846,1.7485,3.74842,1.00001
0.05,0.095919,1.00005,2.7476,1.74764,3.74757,1.00001
0.06,0.114656,1.00007,2.74655,1.74661,3.74651,1.00002
0.07,0.133244,1.0001,2.74531,1.7454,3.74525,1.00002
0.08,0.15169,1.00013,2.74389,1.74401,3.7438,1.00003
0.09,0.169994,1.00018,2.74229,1.74245,3.74216,1.00003
0.1,0.188179,1.00026,2.7405,1.7407,3.74033,1.00007
0.11,0.206233,1.00034,2.73853,1.73879,3.73831,1.0001
0.12,0.224143,1.00043,2.73638,1.7367,3.73611,1.00013
0.13,0.241908,1.00054,2.73405,1.73446,3.7337,1.00016
0.14,0.259544,1.00064,2.73155,1.73204,3.73113,1.00019
0.15,0.277026,1.00073,2.72887,1.72943,3.7284,1.00022
0.16,0.294379,1.00085,2.72601,1.72664,3.72547,1.00026
0.17,0.311619,1.00102,2.72298,1.72371,3.72235,1.00034
0.18,0.328718,1.00122,2.71978,1.72063,3.71901,1.00041
0.19,0.345676,1.00144,2.71642,1.71739,3.71547,1.00048
0.2,0.362467,1.00168,2.71288,1.71401,3.71172,1.00053
0.21,0.379127,1.00193,2.70917,1.71047,3.70785,1.00061
0.22,0.395668,1.00219,2.7053,1.70675,3.70381,1.00072
0.23,0.412055,1.00249,2.70126,1.7029,3.69957,1.00083
0.24,0.428286,1.0028,2.69706,1.69888,3.69513,1.00092
0.25,0.444401,1.00317,2.6927,1.69475,3.6905,1.00103
0.26,0.46037,1.00352,2.68818,1.69045,3.68575,1.00116
0.27,0.475588,1.00391,2.6835,1.68602,3.6808,1.00129
0.28,0.491404,1.00432,2.67867,1.68144,3.67565,1.00141
0.29,0.506972,1.00481,2.67368,1.67677,3.67033,1.00157
0.3,0.522404,1.00528,2.66854,1.67194,3.66487,1.00172
0.31,0.537693,1.00574,2.66324,1.66694,3.65925,1.00187
0.32,0.552897,1.00629,2.65779,1.6618,3.6534,1.00207
0.33,0.56793,1.00681,2.65218,1.65652,3.64744,1.00224
0.34,0.582828,1.00734,2.64643,1.65111,3.64132,1.00241
0.35,0.59759,1.00796,2.64053,1.64557,3.63497,1.00262
0.36,0.612185,1.00852,2.63448,1.6399,3.62855,1.00279
0.37,0.626503,1.00912,2.62829,1.63407,3.62197,1.00301
0.38,0.640916,1.00975,2.62196,1.62812,3.61517,1.00321
0.39,0.654797,1.01031,2.61548,1.62203,3.60834,1.0034
0.4,0.668626,1.01095,2.60886,1.61577,3.6013,1.00363
0.41,0.682541,1.01155,2.60211,1.60942,3.59412,1.00381
0.42,0.696175,1.01222,2.59522,1.60294,3.5868,1.00405
0.43,0.709386,1.01286,2.58819,1.59631,3.57931,1.00425
0.44,0.722971,1.01348,2.58103,1.58955,3.57177,1.00446
0.45,0.736396,1.01414,2.57373,1.58265,3.56399,1.00468
0.46,0.748721,1.01477,2.56631,1.57565,3.55617,1.00488
0.47,0.761362,1.01543,2.55876,1.56852,3.54818,1.0051
0.48,0.774242,1.01604,2.55108,1.56126,3.54012,1.0053
0.49,0.787087,1.01668,2.54328,1.55386,3.5319,1.00552
0.5,0.799969,1.01731,2.53535,1.54635,3.52355,1.00571
0.51,0.812577,1.01793,2.52728,1.5387,3.51511,1.00592
0.52,0.82507,1.01853,2.5191,1.53091,3.50654,1.00612
0.53,0.837695,1.01914,2.51078,1.52302,3.49786,1.00632
0.54,0.850027,1.01974,2.50235,1.51498,3.48904,1.00652
0.55,0.862378,1.02032,2.49379,1.50683,3.48014,1.0067
0.56,0.874427,1.0209,2.4851,1.49853,3.47113,1.00691
0.57,0.886545,1.02149,2.4763,1.49017,3.46195,1.00708
0.58,0.898492,1.02206,2.46738,1.48161,3.45271,1.0073
0.59,0.910276,1.02266,2.45833,1.47298,3.44327,1.00747
0.6,0.922139,1.02318,2.44917,1.46417,3.43383,1.00766
0.61,0.933807,1.02378,2.4399,1.45528,3.42416,1.00785
0.62,0.945358,1.02428,2.4305,1.44625,3.41449,1.00801
0.63,0.956865,1.02485,2.42099,1.4371,3.40462,1.00821
0.64,0.968102,1.02539,2.41137,1.42784,3.39464,1.00837
0.65,0.979329,1.02592,2.40163,1.41847,3.38462,1.00855
0.66,0.990539,1.02649,2.39178,1.40898,3.3744,1.00874
0.67,1.00163,1.02701,2.38182,1.39939,3.36409,1.00889
0.68,1.01262,1.02755,2.37175,1.38966,3.35372,1.00908
0.69,1.0234,1.02811,2.36158,1.37985,3.34319,1.00926
0.7,1.03415,1.0286,2.35129,1.36992,3.33259,1.00941
0.71,1.04488,1.02918,2.3409,1.35988,3.32185,1.00961
0.72,1.05508,1.02974,2.3304,1.34976,3.311,1.00979
0.73,1.0656,1.03023,2.3198,1.33948,3.3001,1.00994
0.74,1.07591,1.0308,2.30909,1.32913,3.28905,1.01014
0.75,1.08624,1.03137,2.29828,1.31868,3.27788,1.01033
0.76,1.09617,1.03188,2.28737,1.3081,3.26664,1.01049
0.77,1.10626,1.03248,2.27636,1.29746,3.25524,1.01068
0.78,1.1163,1.03308,2.26525,1.28673,3.24375,1.01088
0.79,1.12616,1.03363,2.25404,1.27587,3.2322,1.01106
0.8,1.13588,1.03421,2.24273,1.26495,3.22052,1.01123
0.81,1.14548,1.03485,2.23132,1.25393,3.2087,1.01145
0.82,1.15496,1.03544,2.21982,1.24281,3.19685,1.01164
0.83,1.16428,1.03602,2.20822,1.23162,3.18492,1.01183
0.84,1.17384,1.03667,2.19654,1.22037,3.17281,1.01202
0.85,1.18319,1.03731,2.18475,1.20899,3.16066,1.01224
0.86,1.192,1.03795,2.17288,1.19754,3.14842,1.01246
0.87,1.20063,1.03856,2.16091,1.18599,3.1361,1.01265
0.88,1.20932,1.03922,2.14887,1.1744,3.12364,1.01285
0.89,1.21815,1.03992,2.13673,1.1627,3.11107,1.01308
0.9,1.22677,1.04059,2.12451,1.15091,3.0985,1.01332
0.91,1.23522,1.04125,2.1122,1.13904,3.08581,1.01354
0.92,1.24367,1.04194,2.0998,1.12711,3.073,1.01375
0.93,1.25204,1.04264,2.08733,1.11508,3.06009,1.01397
0.94,1.26021,1.04337,2.07477,1.10299,3.0471,1.01421
0.95,1.26827,1.04404,2.06212,1.09079,3.03411,1.01445
0.96,1.27631,1.04474,2.0494,1.07854,3.021,1.01468
0.97,1.28424,1.04544,2.0366,1.06621,3.00776,1.01489
0.98,1.29219,1.04614,2.02372,1.05379,2.99444,1.01509
0.99,1.29985,1.04688,2.01076,1.04131,2.98105,1.01534
1,1.30729,1.04758,1.99773,1.02873,2.96762,1.01558
1.01,1.31469,1.04831,1.98462,1.01613,2.95412,1.01581
1.02,1.32251,1.04904,1.97143,1.00345,2.94051,1.01603
1.03,1.3301,1.04978,1.95817,0.990689,2.9268,1.01625
1.04,1.33731,1.0505,1.94484,0.977873,2.91307,1.01646
1.05,1.34431,1.05122,1.93143,0.964965,2.89927,1.01669
1.06,1.35123,1.05196,1.91795,0.951985,2.88541,1.01694
1.07,1.35807,1.05269,1.90441,0.938961,2.8715,1.01718
1.08,1.36463,1.05341,1.89079,0.92587,2.85751,1.01741
1.09,1.37113,1.0541,1.87712,0.91268,2.84349,1.01763
1.1,1.37757,1.0548,1.86337,0.899424,2.82936,1.01785
1.11,1.3839,1.05551,1.84957,0.886116,2.81518,1.01807
1.12,1.39004,1.0562,1.8357,0.872725,2.80094,1.01829
1.13,1.39605,1.05689,1.82177,0.859325,2.78668,1.0185
1.14,1.40194,1.05762,1.80778,0.845877,2.77235,1.01874
1.15,1.40767,1.05833,1.79373,0.832359,2.75798,1.01897
1.16,1.41346,1.05902,1.77963,0.81876,2.74354,1.01919
1.17,1.41886,1.05971,1.76547,0.805112,2.72905,1.01941
1.18,1.42427,1.06041,1.75125,0.791427,2.7145,1.01962
1.19,1.42949,1.06111,1.73698,0.777687,2.69988,1.01982
1.2,1.43456,1.0618,1.72266,0.763891,2.68521,1.02003
1.21,1.43959,1.0625,1.70829,0.750041,2.67049,1.02024
1.22,1.44431,1.06321,1.69387,0.736196,2.65574,1.02044
1.23,1.44868,1.06394,1.67941,0.722315,2.64093,1.02065
1.24,1.45306,1.06465,1.6649,0.708378,2.6261,1.02085
1.25,1.45727,1.06535,1.65035,0.694387,2.61123,1.02105
1.26,1.46135,1.06602,1.63576,0.680358,2.59637,1.02126
1.27,1.4653,1.06675,1.62113,0.66631,2.58142,1.02147
1.28,1.46906,1.06747,1.60646,0.652222,2.56644,1.02169
1.29,1.47249,1.06821,1.59175,0.638109,2.55142,1.02191
1.3,1.47576,1.06893,1.57701,0.623955,2.53637,1.02212
1.31,1.47882,1.0697,1.56224,0.609796,2.52126,1.02234
1.32,1.4818,1.07046,1.54743,0.595612,2.50611,1.02256
1.33,1.48469,1.07125,1.5326,0.581411,2.49092,1.02278
1.34,1.48701,1.07203,1.51774,0.5672,2.47573,1.023
1.35,1.48923,1.07284,1.50286,0.552991,2.4605,1.02323
1.36,1.49113,1.07369,1.48796,0.538802,2.44524,1.02346
1.37,1.49288,1.07453,1.47304,0.524599,2.42996,1.02369
1.38,1.49399,1.0754,1.45811,0.510419,2.41469,1.02392
1.39,1.49515,1.07629,1.44316,0.496247,2.39939,1.02416
1.4,1.49577,1.07721,1.42821,0.482099,2.38407,1.02441
1.41,1.49592,1.07815,1.41325,0.467969,2.36875,1.02466
1.42,1.49608,1.07911,1.39829,0.453867,2.35342,1.02492
1.43,1.49594,1.08011,1.38333,0.439794,2.33809,1.02518
1.44,1.49551,1.08114,1.36837,0.42578,2.32275,1.02545
1.45,1.4947,1.08221,1.35342,0.411815,2.30741,1.02572
1.46,1.49344,1.08331,1.33848,0.397887,2.29208,1.026
1.47,1.49191,1.08445,1.32356,0.384041,2.27676,1.02628
1.48,1.4899,1.08565,1.30865,0.370259,2.26144,1.02658
1.49,1.48758,1.0869,1.29376,0.356557,2.24613,1.02688
1.5,1.48476,1.0882,1.2789,0.342926,2.23081,1.02719
1.51,1.48148,1.08954,1.26407,0.329397,2.21553,1.02751
1.52,1.47769,1.09096,1.24927,0.315981,2.20026,1.02784
1.53,1.47342,1.09244,1.23452,0.302671,2.18503,1.02818
1.54,1.46866,1.09398,1.21981,0.289494,2.16982,1.02853
1.55,1.46323,1.09557,1.20515,0.276427,2.15469,1.02888
1.56,1.45728,1.09725,1.19054,0.263525,2.13958,1.02925
1.57,1.45084,1.09901,1.176,0.250783,2.12453,1.02963
1.58,1.44371,1.1009,1.16153,0.238223,2.10949,1.03004
1.59,1.43588,1.10284,1.14713,0.225837,2.09455,1.03045
1.6,1.42752,1.1049,1.13282,0.21363,2.07964,1.03088
1.61,1.41845,1.10709,1.11859,0.201671,2.0648,1.03133
1.62,1.40862,1.10941,1.10445,0.18995,2.05003,1.03179
1.63,1.39802,1.11184,1.09042,0.178478,2.03535,1.03227
1.64,1.3867,1.11442,1.07649,0.1673,2.02076,1.03277
1.65,1.37456,1.11717,1.06269,0.156433,2.00627,1.03329
1.66,1.36139,1.12006,1.04901,0.145854,1.99188,1.03383
1.67,1.34745,1.12314,1.03546,0.135636,1.9776,1.0344
1.68,1.33257,1.12644,1.02206,0.12582,1.96343,1.03498
1.69,1.31668,1.12996,1.00881,0.116383,1.94936,1.03559
1.7,1.29978,1.13377,0.995732,0.107489,1.93543,1.03623
1.71,1.28168,1.13776,0.982824,0.0989595,1.92164,1.03689
1.72,1.26261,1.1421,0.970102,0.0910344,1.90799,1.03757
1.73,1.24228,1.14676,0.957578,0.0835794,1.89447,1.03833
1.74,1.22067,1.15176,0.945263,0.0767463,1.88114,1.03912
1.75,1.19781,1.15699,0.93317,0.0703256,1.868,1.03995
1.76,1.17362,1.16261,0.921313,0.0645684,1.85507,1.04083
1.77,1.14805,1.1686,0.909704,0.0594123,1.84233,1.04175
1.78,1.12107,1.17501,0.898358,0.0549069,1.82974,1.04272
1.79,1.09274,1.1818,0.887288,0.0510052,1.81734,1.04373
1.8,1.06291,1.18891,0.87651,0.0475208,1.80516,1.04484
1.81,1.03165,1.19631,0.866037,0.0445312,1.79326,1.04601
1.82,0.998879,1.20402,0.855883,0.042018,1.78159,1.04724
1.83,0.964865,1.21206,0.846063,0.0399797,1.77017,1.04855
1.84,0.929343,1.22024,0.83659,0.0381752,1.75898,1.0499
1.85,0.892653,1.22848,0.827479,0.0364646,1.74815,1.05138
1.86,0.854513,1.23673,0.818742,0.0348284,1.73759,1.05293
1.87,0.815236,1.24496,0.810391,0.0332514,1.72726,1.05449
1.88,0.774769,1.25318,0.80244,0.0317535,1.71728,1.05614
1.89,0.733071,1.26124,0.794899,0.0303257,1.70769,1.05778
1.9,0.690349,1.26917,0.78778,0.0289187,1.69836,1.0594
1.91,0.646815,1.2769,0.781092,0.0276047,1.68947,1.06102
1.92,0.602362,1.2844,0.774844,0.0263543,1.68096,1.06259
1.93,0.55725,1.29178,0.769043,0.0251631,1.67282,1.0642
1.94,0.51149,1.29893,0.763697,0.0240758,1.66514,1.06581
1.95,0.465409,1.30581,0.758811,0.0230105,1.65783,1.06738
1.96,0.419151,1.31239,0.754385,0.0220567,1.65106,1.06894
1.97,0.372812,1.31869,0.750423,0.0211666,1.64466,1.07044
1.98,0.326714,1.32444,0.746924,0.020323,1.63879,1.07178
1.99,0.280914,1.32968,0.743884,0.0195401,1.63353,1.07304
2,0.23548,1.33431,0.741299,0.0188017,1.62875,1.07409
2.01,0.190579,1.33809,0.739167,0.0181301,1.62477,1.07492
2.02,0.146308,1.341,0.73748,0.0174997,1.62157,1.07552
2.03,0.102646,1.34312,0.736234,0.0169131,1.61911,1.07598
2.04,0.0598218,1.3445,0.73542,0.0163609,1.61726,1.0762
2.05,0.0177471,1.34527,0.735031,0.0158786,1.61602,1.07631
2.06,-0.0234806,1.34508,0.735059,0.0153823,1.61552,1.07615
2.07,-0.0637516,1.34428,0.735494,0.0149137,1.61551,1.07583
2.08,-0.103076,1.34295,0.736326,0.0144843,1.61595,1.07534
2.09,-0.141464,1.34082,0.737548,0.0140643,1.61703,1.07465
2.1,-0.178878,1.33798,0.739148,0.013672,1.61879,1.07381
2.11,-0.215193,1.33443,0.741117,0.0132957,1.62123,1.07283
2.12,-0.250311,1.32989,0.743443,0.0129516,1.62464,1.07169
2.13,-0.284164,1.32459,0.746114,0.0126155,1.62872,1.07033
2.14,-0.316904,1.31834,0.749119,0.0123051,1.63375,1.06881
2.15,-0.34828,1.3116,0.752443,0.0120193,1.63932,1.06719
2.16,-0.378453,1.30438,0.756076,0.0117533,1.64535,1.06542
2.17,-0.407344,1.29649,0.760004,0.0115164,1.65212,1.06351
2.18,-0.434829,1.28822,0.764214,0.0112962,1.65936,1.06154
2.19,-0.460921,1.27968,0.768693,0.0110898,1.66689,1.05945
2.2,-0.485585,1.27091,0.773424,0.0109042,1.67482,1.05734
2.21,-0.508752,1.26182,0.778396,0.0107202,1.68318,1.05518
2.22,-0.530314,1.25255,0.783591,0.0105537,1.69178,1.05291
2.23,-0.550339,1.24317,0.788994,0.010395,1.70064,1.05063
2.24,-0.568862,1.23375,0.79459,0.0102522,1.70957,1.04827
2.25,-0.585843,1.22429,0.800363,0.0101243,1.71878,1.04594
2.26,-0.60104,1.21481,0.806297,0.0100152,1.72812,1.04359
2.27,-0.614561,1.2055,0.812375,0.00992272,1.73753,1.04131
2.28,-0.626486,1.1962,0.818581,0.00984318,1.74704,1.03902
2.29,-0.636703,1.18705,0.824897,0.00978839,1.75672,1.03684
2.3,-0.64524,1.17791,0.831307,0.00975696,1.76653,1.03466
2.31,-0.652056,1.16897,0.837794,0.00974072,1.77643,1.0326
2.32,-0.657293,1.16019,0.844341,0.00974959,1.78626,1.03054
2.33,-0.660906,1.15169,0.850932,0.00977437,1.79603,1.02861
2.34,-0.663084,1.14338,0.857552,0.00982122,1.80575,1.02672
2.35,-0.663652,1.13531,0.864186,0.00989382,1.81544,1.02492
2.36,-0.662727,1.12738,0.870818,0.00997772,1.82514,1.02318
2.37,-0.660388,1.11972,0.877435,0.010091,1.8347,1.02152
2.38,-0.656734,1.11233,0.88402,0.0102124,1.8441,1.01994
2.39,-0.651785,1.10519,0.890563,0.0103663,1.85334,1.01842
2.4,-0.64568,1.09837,0.897051,0.0105472,1.86232,1.01696
2.41,-0.638374,1.09175,0.903472,0.0107364,1.87115,1.01555
2.42,-0.62994,1.08539,0.909814,0.0109482,1.8798,1.01422
2.43,-0.620502,1.07927,0.916066,0.0111741,1.88828,1.01295
2.44,-0.610046,1.07337,0.922219,0.0113939,1.89658,1.01175
2.45,-0.598807,1.06772,0.928264,0.0116431,1.90469,1.01063
2.46,-0.586622,1.06225,0.934192,0.0118418,1.91259,1.00953
2.47,-0.57368,1.05703,0.939993,0.0120074,1.92027,1.00854
2.48,-0.560022,1.05192,0.945662,0.012126,1.92779,1.00756
2.49,-0.545628,1.04705,0.951191,0.0121605,1.93504,1.00668
2.5,-0.530668,1.04235,0.956573,0.0121335,1.9421,1.00585
2.51,-0.515214,1.03783,0.961803,0.0120321,1.94887,1.00505
2.52,-0.499127,1.03354,0.966875,0.0118523,1.95541,1.00437
2.53,-0.482612,1.02934,0.971784,0.0116126,1.96176,1.00368
2.54,-0.465563,1.0253,0.976526,0.0112391,1.96784,1.00305
2.55,-0.448111,1.02143,0.981094,0.0107572,1.97366,1.00248
2.56,-0.430264,1.01768,0.985487,0.0101278,1.97919,1.00194
2.57,-0.412092,1.01407,0.989699,0.00936008,1.98443,1.00143
2.58,-0.393585,1.01056,0.993728,0.00839081,1.98949,1.00101
2.59,-0.37492,1.00725,0.997571,0.00741637,1.99424,1.00062
2.6,-0.355954,1.00394,1.00123,0.00611053,1.99873,1.00024
2.61,-0.336948,1.0008,1.00469,0.00480389,2.003,0.999898
2.62,-0.317765,0.99776,1.00797,0.00321641,2.00693,0.999612
2.63,-0.298533,0.994552,1.01105,0.00100531,2.01063,0.999339
2.64,-0.279137,0.992162,1.01394,0.000148154,2.01409,0.999079
2.65,-0.259587,0.990275,1.01663,-0,2.0173,0.998841
2.66,-0.239964,0.988629,1.01913,-0,2.02021,0.998617
2.67,-0.220424,0.987152,1.02143,1.26182e-05,2.0229,0.998448
2.68,-0.200795,0.985819,1.02354,-0,2.02536,0.99832
2.69,-0.181222,0.984648,1.02545,-0,2.02752,0.998199
2.7,-0.16171,0.983608,1.02716,-0,2.02945,0.998093
2.71,-0.142272,0.982765,1.02868,0.000109064,2.03107,0.99798
2.72,-0.12291,0.982032,1.03001,0.000135073,2.03244,0.997894
2.73,-0.103785,0.981511,1.03114,0.000326705,2.03359,0.997835
2.74,-0.0849642,0.98099,1.03209,0.000356056,2.03459,0.997782
2.75,-0.0662832,0.980418,1.03284,3.10296e-05,2.03539,0.99775
2.76,-0.0477576,0.982456,1.03341,0.00482392,2.03593,0.997737
2.77,-0.0294323,0.982812,1.0338,0.00595091,2.03635,0.997751
2.78,-0.0117418,0.983337,1.03401,0.00720838,2.03656,0.99777
2.79,0.00589763,0.984098,1.03404,0.00868092,2.03657,0.99782
