time,velocity,ratio,centerX,Xmax,Xmin,Ymax
0,0,1,1.25,0.25,2.25,1
0.01,0.0165732,1.00003,1.24992,0.249961,2.24991,1.00001
0.02,0.0329792,1.00013,1.24968,0.249842,2.24963,1.00002
0.03,0.0492204,1.00029,1.24927,0.249646,2.24917,1.00005
0.04,0.0650119,1.00051,1.24871,0.249379,2.24854,1.00009
0.05,0.080793,1.00081,1.24798,0.249047,2.24772,1.00015
0.06,0.0958763,1.00117,1.24711,0.248649,2.24673,1.00021
0.07,0.11109,1.00161,1.24608,0.248185,2.24556,1.00029
0.08,0.1261,1.0021,1.24489,0.247652,2.24422,1.00039
0.09,0.141341,1.00266,1.24356,0.247037,2.24272,1.00049
0.1,0.155999,1.0033,1.24208,0.246356,2.24103,1.00063
0.11,0.170495,1.00401,1.24046,0.24559,2.23918,1.0008
0.12,0.185014,1.00477,1.23868,0.244734,2.23717,1.00097
0.13,0.199203,1.00559,1.23677,0.24379,2.23498,1.00116
0.14,0.21308,1.00647,1.23471,0.242756,2.23263,1.00137
0.15,0.226601,1.00741,1.23252,0.241646,2.2301,1.0016
0.16,0.240363,1.00842,1.23019,0.240449,2.22738,1.00183
0.17,0.25372,1.00954,1.22772,0.239174,2.22448,1.00212
0.18,0.267127,1.01073,1.22513,0.237824,2.2214,1.00243
0.19,0.280176,1.01199,1.22239,0.236396,2.21816,1.00276
0.2,0.293144,1.01332,1.21953,0.234905,2.21473,1.0031
0.21,0.305564,1.01474,1.21654,0.233348,2.21111,1.00346
0.22,0.318109,1.01626,1.21343,0.231709,2.20733,1.00387
0.23,0.33046,1.01785,1.21019,0.229988,2.20339,1.00432
0.24,0.342589,1.01951,1.20683,0.228189,2.19928,1.00477
0.25,0.354428,1.02124,1.20335,0.226319,2.19499,1.00525
0.26,0.365965,1.02311,1.19975,0.224385,2.19051,1.00578
0.27,0.377449,1.02505,1.19603,0.222369,2.18588,1.00634
0.28,0.38865,1.02709,1.19221,0.220308,2.18103,1.00692
0.29,0.399493,1.02921,1.18827,0.218187,2.17601,1.00751
0.3,0.410211,1.03144,1.18423,0.215995,2.17087,1.00817
0.31,0.420733,1.03374,1.18007,0.21374,2.16559,1.00885
0.32,0.43055,1.03616,1.17582,0.211432,2.16006,1.00954
0.33,0.440468,1.0387,1.17147,0.209075,2.15437,1.01028
0.34,0.450007,1.04134,1.16702,0.206666,2.14851,1.01106
0.35,0.459532,1.04409,1.16248,0.204217,2.14244,1.01184
0.36,0.468352,1.04692,1.15784,0.201722,2.13626,1.01265
0.37,0.477262,1.04991,1.15312,0.199157,2.12985,1.01353
0.38,0.485991,1.05296,1.1483,0.196556,2.12331,1.0144
0.39,0.494481,1.05611,1.1434,0.19391,2.11661,1.01529
0.4,0.502502,1.05945,1.13842,0.191218,2.10967,1.01625
0.41,0.510466,1.06278,1.13336,0.188496,2.10272,1.0172
0.42,0.518129,1.06623,1.12822,0.185754,2.09556,1.01815
0.43,0.525416,1.06988,1.12301,0.182998,2.08822,1.01918
0.44,0.532577,1.07366,1.11772,0.180241,2.08067,1.02021
0.45,0.539436,1.07751,1.11236,0.177446,2.073,1.02124
0.46,0.545989,1.08154,1.10694,0.174635,2.06516,1.02234
0.47,0.552127,1.08567,1.10145,0.171843,2.0572,1.02343
0.48,0.558102,1.08991,1.0959,0.169033,2.04907,1.02454
0.49,0.563741,1.09427,1.09029,0.16618,2.04087,1.0257
0.5,0.569194,1.09872,1.08463,0.163356,2.03255,1.02686
0.51,0.574472,1.1033,1.07891,0.160538,2.02411,1.02804
0.52,0.579392,1.10809,1.07315,0.157743,2.01547,1.02926
0.53,0.583901,1.11293,1.06733,0.154943,2.00678,1.03048
0.54,0.588339,1.11793,1.06147,0.152152,1.99795,1.03173
0.55,0.592489,1.12303,1.05557,0.149361,1.98904,1.03301
0.56,0.5964,1.12824,1.04963,0.146586,1.98,1.03427
0.57,0.599824,1.13354,1.04365,0.143833,1.97104,1.0356
0.58,0.603303,1.13898,1.03764,0.141105,1.96191,1.03693
0.59,0.60638,1.14453,1.03159,0.138396,1.95271,1.03827
0.6,0.609244,1.15025,1.02551,0.135719,1.94344,1.03967
0.61,0.611595,1.15606,1.01941,0.13306,1.93409,1.04105
0.62,0.613818,1.16199,1.01328,0.130451,1.92475,1.04248
0.63,0.615937,1.16805,1.00714,0.127877,1.91534,1.04392
0.64,0.617767,1.17409,1.00097,0.125343,1.90605,1.04536
0.65,0.619447,1.18033,0.994784,0.122845,1.89669,1.04686
0.66,0.620692,1.18663,0.988584,0.120378,1.8873,1.04833
0.67,0.621865,1.19301,0.982373,0.117933,1.87794,1.04986
0.68,0.622702,1.19954,0.976151,0.115554,1.86854,1.05139
0.69,0.623317,1.20611,0.969922,0.113217,1.85919,1.05292
0.7,0.623781,1.21283,0.963688,0.110939,1.84988,1.05452
0.71,0.623996,1.21953,0.95745,0.108697,1.84067,1.05609
0.72,0.623899,1.22638,0.951211,0.106499,1.83145,1.05772
0.73,0.623701,1.23334,0.944974,0.104337,1.8222,1.05936
0.74,0.623094,1.24035,0.938741,0.102231,1.81302,1.06099
0.75,0.622404,1.24753,0.932514,0.100179,1.80384,1.06269
0.76,0.621475,1.25474,0.926296,0.0981926,1.7947,1.06434
0.77,0.620368,1.26206,0.920087,0.0962748,1.78569,1.06607
0.78,0.61902,1.26941,0.913891,0.0944049,1.77673,1.06778
0.79,0.617451,1.27686,0.907709,0.0925972,1.76782,1.06952
0.8,0.615531,1.28443,0.901545,0.090807,1.75892,1.07129
0.81,0.61353,1.29203,0.8954,0.089097,1.75011,1.07304
0.82,0.611388,1.29978,0.889275,0.0874334,1.74135,1.07486
0.83,0.608898,1.30757,0.883174,0.0858317,1.73262,1.07664
0.84,0.606237,1.31546,0.877098,0.0842983,1.72401,1.07849
0.85,0.603398,1.32338,0.87105,0.0828412,1.7155,1.08031
0.86,0.600364,1.3314,0.865031,0.0814148,1.707,1.08216
0.87,0.597162,1.33958,0.859044,0.0800741,1.69853,1.08403
0.88,0.5937,1.34776,0.853089,0.0787701,1.69015,1.08588
0.89,0.590079,1.35611,0.847171,0.0775391,1.68183,1.0878
0.9,0.58614,1.36442,0.84129,0.0763406,1.67359,1.08967
0.91,0.582117,1.37287,0.835449,0.0751532,1.66541,1.09161
0.92,0.577886,1.38125,0.829648,0.0740508,1.65741,1.09351
0.93,0.573461,1.38972,0.823891,0.0729353,1.64941,1.09543
0.94,0.568908,1.39823,0.818179,0.0718839,1.64152,1.09736
0.95,0.564031,1.40685,0.812514,0.0708924,1.63363,1.09928
0.96,0.559133,1.41549,0.806898,0.0699091,1.62588,1.10123
0.97,0.55381,1.42415,0.801333,0.0689744,1.61815,1.10313
0.98,0.548414,1.43294,0.795822,0.0680822,1.61051,1.1051
0.99,0.542876,1.44163,0.790365,0.0672013,1.60298,1.10701
1,0.537222,1.45038,0.784964,0.0663951,1.59561,1.10897
1.01,0.531348,1.45909,0.779621,0.0655613,1.58827,1.11088
1.02,0.525307,1.46786,0.774337,0.0648116,1.58102,1.11279
1.03,0.51916,1.47668,0.769114,0.0640464,1.57382,1.11472
1.04,0.512785,1.48539,0.763954,0.0633103,1.56675,1.1166
1.05,0.506256,1.49427,0.758859,0.0626033,1.55971,1.11854
1.06,0.499582,1.50296,0.753829,0.0618942,1.55282,1.1204
1.07,0.492749,1.51185,0.748867,0.0612906,1.54597,1.12231
1.08,0.485665,1.52062,0.743974,0.0607158,1.53928,1.12417
1.09,0.478541,1.5293,0.739153,0.0601697,1.53273,1.12599
1.1,0.471198,1.53808,0.734404,0.0596734,1.52623,1.12784
1.11,0.463722,1.54665,0.729728,0.0591598,1.51986,1.1296
1.12,0.45613,1.55543,0.725128,0.0587462,1.51355,1.13142
1.13,0.448395,1.56403,0.720605,0.0583179,1.50737,1.13318
1.14,0.440533,1.5726,0.716159,0.0579387,1.5013,1.13491
1.15,0.432544,1.58121,0.711793,0.057603,1.49532,1.13667
1.16,0.424401,1.58967,0.707507,0.0572954,1.48946,1.13833
1.17,0.416128,1.59808,0.703304,0.0569781,1.48373,1.14003
1.18,0.407629,1.60626,0.699184,0.0566211,1.47816,1.14168
1.19,0.399127,1.61417,0.695149,0.0562344,1.47272,1.14323
1.2,0.390525,1.62211,0.691199,0.0558387,1.46739,1.14484
1.21,0.381836,1.62985,0.687337,0.0554339,1.46216,1.14638
1.22,0.373039,1.63741,0.683561,0.0550188,1.45704,1.14785
1.23,0.364191,1.6449,0.679874,0.0545854,1.45205,1.14934
1.24,0.355218,1.65216,0.676276,0.0541661,1.44719,1.15075
1.25,0.346152,1.65916,0.672768,0.0537168,1.44246,1.15207
1.26,0.337034,1.66609,0.669351,0.0532793,1.43788,1.15343
1.27,0.32787,1.67277,0.666025,0.0528203,1.43343,1.15472
1.28,0.318643,1.67922,0.662791,0.0523557,1.42911,1.15593
1.29,0.309271,1.68547,0.659651,0.0518865,1.42494,1.15711
1.3,0.29992,1.69155,0.656604,0.0514018,1.42089,1.15828
1.31,0.290535,1.69741,0.65365,0.05092,1.41697,1.15938
1.32,0.281063,1.70299,0.650791,0.0504148,1.4132,1.1604
1.33,0.271606,1.70845,0.648027,0.0499022,1.40956,1.16145
1.34,0.262085,1.7137,0.645358,0.0493902,1.40604,1.16245
1.35,0.252511,1.71866,0.642784,0.0488542,1.40266,1.16337
1.36,0.242967,1.72336,0.640306,0.0483273,1.39943,1.16422
1.37,0.233392,1.72782,0.637924,0.0477748,1.39637,1.16506
1.38,0.223817,1.7321,0.635637,0.0472249,1.39343,1.16588
1.39,0.214344,1.73609,0.633446,0.0466592,1.39062,1.16662
1.4,0.204816,1.73981,0.63135,0.0460867,1.38795,1.1673
1.41,0.19527,1.74324,0.629348,0.0455106,1.38543,1.1679
1.42,0.185767,1.74644,0.627441,0.0449203,1.38305,1.16848
1.43,0.17627,1.74944,0.625629,0.0443315,1.38078,1.16902
1.44,0.166872,1.75215,0.623912,0.0437331,1.37867,1.1695
1.45,0.157491,1.75457,0.622289,0.0431301,1.3767,1.16992
1.46,0.148283,1.75674,0.620758,0.0425431,1.37487,1.17028
1.47,0.139029,1.75859,0.61932,0.0419403,1.3732,1.17057
1.48,0.129783,1.76019,0.617974,0.0413483,1.37167,1.1708
1.49,0.120621,1.76151,0.61672,0.0407585,1.37027,1.17097
1.5,0.11169,1.76264,0.615556,0.0401619,1.369,1.17113
1.51,0.102803,1.76352,0.614482,0.0395921,1.36788,1.17123
1.52,0.0938775,1.76412,0.613497,0.0390197,1.36692,1.17129
1.53,0.0850983,1.76448,0.6126,0.0384591,1.36609,1.17129
1.54,0.0764708,1.76457,0.611791,0.0378844,1.36539,1.17123
1.55,0.0680185,1.76442,0.611067,0.0373255,1.36481,1.17112
1.56,0.0595055,1.76403,0.610428,0.0367747,1.36437,1.17096
1.57,0.0510203,1.76339,0.609873,0.0362474,1.36409,1.17075
1.58,0.0427465,1.76248,0.609404,0.035717,1.36395,1.1705
1.59,0.0345096,1.76134,0.609016,0.035181,1.36394,1.1702
1.6,0.0265111,1.75999,0.60871,0.0346571,1.36406,1.16986
1.61,0.0185866,1.75842,0.608483,0.0341417,1.36429,1.16948
1.62,0.0108142,1.75667,0.608335,0.0336528,1.36464,1.16905
1.63,0.00307901,1.75479,0.608266,0.033217,1.3651,1.16859
1.64,-0.00430846,1.75268,0.608271,0.0327648,1.36568,1.16809
1.65,-0.0117039,1.75038,0.60835,0.0323094,1.36636,1.16755
1.66,-0.0189599,1.74787,0.608503,0.0318638,1.36717,1.16697
1.67,-0.0258564,1.74519,0.608727,0.0314384,1.36811,1.16637
1.68,-0.032887,1.74235,0.609021,0.0310381,1.36915,1.16573
1.69,-0.039721,1.73931,0.609384,0.0306237,1.3703,1.16506
1.7,-0.0464432,1.73611,0.609814,0.0302219,1.37155,1.16435
1.71,-0.0530088,1.73275,0.610311,0.029836,1.37291,1.1636
1.72,-0.059396,1.72918,0.610872,0.0294321,1.37436,1.16281
1.73,-0.0654337,1.72549,0.611495,0.0290654,1.3759,1.16198
1.74,-0.0715698,1.72165,0.61218,0.0286881,1.37753,1.16111
1.75,-0.0773871,1.7177,0.612925,0.0283573,1.37925,1.16021
1.76,-0.083123,1.71353,0.613726,0.027983,1.38107,1.15928
1.77,-0.0886479,1.70923,0.614585,0.0276393,1.38301,1.15832
1.78,-0.0940593,1.7048,0.615498,0.0273061,1.38505,1.15734
1.79,-0.0992619,1.70024,0.616464,0.0269823,1.38716,1.15632
1.8,-0.104358,1.69554,0.617481,0.0266541,1.38937,1.15527
1.81,-0.109178,1.69074,0.618548,0.0263498,1.39166,1.15419
1.82,-0.113942,1.68587,0.619663,0.0260699,1.39405,1.15311
1.83,-0.11849,1.68091,0.620825,0.0258086,1.39651,1.15202
1.84,-0.122962,1.67585,0.622031,0.0255458,1.39905,1.15089
1.85,-0.127126,1.67067,0.623281,0.0252917,1.40167,1.14974
1.86,-0.131291,1.66541,0.624573,0.0250534,1.40436,1.14856
1.87,-0.135267,1.66006,0.625905,0.0248247,1.40713,1.14736
1.88,-0.13905,1.65463,0.627276,0.0246043,1.40998,1.14614
1.89,-0.142675,1.64916,0.628684,0.0243922,1.41287,1.14491
1.9,-0.146114,1.64363,0.630127,0.0241806,1.4158,1.14366
1.91,-0.149378,1.63811,0.631604,0.0239737,1.41878,1.14242
1.92,-0.152523,1.63254,0.633113,0.0237817,1.42182,1.14118
1.93,-0.155531,1.62693,0.634653,0.0236195,1.42492,1.13991
1.94,-0.158359,1.62127,0.636222,0.0234584,1.42806,1.13862
1.95,-0.161026,1.61558,0.637818,0.023303,1.43125,1.13732
1.96,-0.163562,1.60983,0.639441,0.0231465,1.43448,1.136
1.97,-0.165968,1.60409,0.641088,0.0230008,1.43774,1.13468
1.98,-0.168196,1.59837,0.642758,0.0228693,1.44102,1.13337
1.99,-0.170206,1.59273,0.64445,0.0227692,1.44433,1.13208
2,-0.172187,1.58705,0.646161,0.0226436,1.44767,1.13079
2.01,-0.174012,1.58136,0.647892,0.0225264,1.45104,1.1295
2.02,-0.175675,1.57568,0.64964,0.0224257,1.45443,1.12819
2.03,-0.177297,1.56999,0.651404,0.0223348,1.45785,1.12687
2.04,-0.178625,1.56428,0.653183,0.0222393,1.4613,1.12555
2.05,-0.179859,1.55857,0.654976,0.022157,1.46478,1.12422
2.06,-0.180885,1.55297,0.656779,0.0220927,1.46827,1.12293
2.07,-0.181874,1.54737,0.658592,0.0220243,1.47179,1.12166
2.08,-0.182699,1.54176,0.660414,0.0219561,1.47534,1.12038
2.09,-0.183247,1.53618,0.662244,0.0218996,1.47889,1.1191
2.1,-0.18383,1.53061,0.664079,0.021845,1.48246,1.11781
2.11,-0.184266,1.52508,0.665918,0.0217907,1.48601,1.11653
2.12,-0.184539,1.51958,0.667762,0.0217508,1.48959,1.11525
2.13,-0.184769,1.51414,0.669608,0.0217178,1.4932,1.11402
2.14,-0.184832,1.50875,0.671455,0.0216798,1.49681,1.11281
2.15,-0.184696,1.50341,0.673302,0.0216488,1.50043,1.1116
2.16,-0.184509,1.49812,0.675148,0.0216312,1.50403,1.1104
2.17,-0.184121,1.49285,0.676991,0.0216006,1.50762,1.1092
2.18,-0.183702,1.48762,0.67883,0.0215851,1.51122,1.108
2.19,-0.183173,1.48245,0.680664,0.021585,1.51481,1.10681
2.2,-0.182593,1.47733,0.682492,0.0215655,1.51839,1.10565
2.21,-0.181885,1.47229,0.684314,0.0215567,1.52197,1.10453
2.22,-0.18105,1.46732,0.686128,0.0215612,1.52554,1.10341
2.23,-0.18009,1.46238,0.687933,0.021548,1.5291,1.10231
2.24,-0.179083,1.4575,0.689729,0.0215504,1.53264,1.10121
2.25,-0.177938,1.45266,0.691513,0.0215677,1.53619,1.10011
2.26,-0.176703,1.44787,0.693286,0.0215653,1.5397,1.09903
2.27,-0.175404,1.44316,0.695046,0.0215728,1.54317,1.09795
2.28,-0.173957,1.43857,0.696792,0.021595,1.54662,1.09693
2.29,-0.172427,1.43406,0.698523,0.0216002,1.55003,1.09593
2.3,-0.17079,1.42961,0.700239,0.021619,1.55341,1.09493
2.31,-0.169099,1.42521,0.701938,0.0216504,1.55678,1.09394
2.32,-0.167373,1.42087,0.70362,0.021662,1.5601,1.09296
2.33,-0.165466,1.41659,0.705283,0.0216866,1.56341,1.09199
2.34,-0.16347,1.41242,0.706927,0.0217173,1.56664,1.09104
2.35,-0.161396,1.40831,0.708551,0.0217329,1.56984,1.09011
2.36,-0.159245,1.40432,0.710154,0.0217571,1.57299,1.08921
2.37,-0.157008,1.40045,0.711735,0.0217939,1.57609,1.08835
2.38,-0.154698,1.39664,0.713293,0.0218153,1.57913,1.0875
2.39,-0.152324,1.39291,0.714827,0.0218424,1.58213,1.08667
2.4,-0.149877,1.38925,0.716338,0.0218789,1.5851,1.08585
2.41,-0.147353,1.38566,0.717823,0.0219101,1.58801,1.08504
2.42,-0.14477,1.38216,0.719284,0.0219399,1.59085,1.08424
2.43,-0.142119,1.37875,0.720717,0.0219779,1.59364,1.08347
2.44,-0.139404,1.37543,0.722125,0.0220184,1.59638,1.08271
2.45,-0.136627,1.37221,0.723504,0.0220453,1.59905,1.08199
2.46,-0.133794,1.36911,0.724856,0.0220802,1.60165,1.0813
2.47,-0.13091,1.3661,0.726179,0.0221261,1.60419,1.08062
2.48,-0.127973,1.36317,0.727473,0.0221576,1.60665,1.07996
2.49,-0.124989,1.36034,0.728737,0.0221901,1.60903,1.07932
2.5,-0.121994,1.3576,0.729972,0.022229,1.61135,1.0787
2.51,-0.118897,1.35496,0.731176,0.0222656,1.61359,1.07809
2.52,-0.11575,1.35239,0.732349,0.022297,1.61577,1.0775
2.53,-0.112583,1.34993,0.73349,0.0223325,1.61787,1.07693
2.54,-0.109369,1.34756,0.7346,0.0223752,1.6199,1.07638
2.55,-0.106125,1.34526,0.735677,0.0224066,1.62187,1.07585
2.56,-0.102866,1.34306,0.736722,0.0224413,1.62377,1.07534
2.57,-0.0995857,1.34098,0.737734,0.0224774,1.62559,1.07487
2.58,-0.0962999,1.339,0.738713,0.0225207,1.62732,1.07442
2.59,-0.092972,1.33709,0.739659,0.0225493,1.629,1.07399
2.6,-0.0896257,1.33528,0.740572,0.0225856,1.6306,1.07357
2.61,-0.0862605,1.33354,0.741451,0.0226217,1.63214,1.07318
2.62,-0.0828831,1.33188,0.742296,0.0226629,1.63363,1.07281
2.63,-0.0794887,1.33031,0.743108,0.0226959,1.63504,1.07245
2.64,-0.0760898,1.32882,0.743886,0.0227291,1.63638,1.07212
2.65,-0.0726849,1.32741,0.744629,0.0227595,1.63765,1.07181
2.66,-0.0692833,1.32608,0.745339,0.0227912,1.63886,1.07151
2.67,-0.0658752,1.32482,0.746014,0.0228214,1.64,1.07124
2.68,-0.0624627,1.32363,0.746656,0.0228391,1.64108,1.07098
2.69,-0.0590603,1.32254,0.747263,0.0228711,1.64208,1.07074
2.7,-0.0556599,1.32153,0.747837,0.0229006,1.64302,1.07052
2.71,-0.0522755,1.32059,0.748376,0.0229302,1.64389,1.07031
2.72,-0.0488921,1.31973,0.748882,0.0229601,1.64469,1.07013
2.73,-0.0455272,1.31894,0.749354,0.0229785,1.64543,1.06996
2.74,-0.0421723,1.31823,0.749792,0.023001,1.6461,1.06981
2.75,-0.0388269,1.31761,0.750197,0.0230256,1.64671,1.06969
2.76,-0.0355089,1.31707,0.750569,0.0230497,1.64724,1.06959
2.77,-0.0322207,1.31661,0.750907,0.0230757,1.64771,1.06951
2.78,-0.0289494,1.31622,0.751213,0.0230939,1.64812,1.06944
2.79,-0.0256971,1.31589,0.751486,0.0231093,1.64847,1.0694
2.8,-0.0224729,1.31564,0.751727,0.0231245,1.64875,1.06937
2.81,-0.0192759,1.31547,0.751936,0.0231476,1.64896,1.06936
2.82,-0.0161188,1.31537,0.752113,0.0231672,1.64912,1.06936
2.83,-0.01299,1.31533,0.752259,0.0231854,1.64921,1.06938
2.84,-0.00990268,1.31536,0.752373,0.0232037,1.64924,1.06941
2.85,-0.00683683,1.31545,0.752457,0.0232054,1.64921,1.06946
2.86,-0.00381416,1.3156,0.75251,0.023206,1.64912,1.06953
2.87,-0.000827494,1.31582,0.752534,0.0232075,1.64897,1.06961
2.88,0.00211855,1.3161,0.752528,0.0232096,1.64876,1.0697
