time,velocity,ratio,centerX,Xmax,Xmin,Ymax
0,0,1,11,10,12,1
0.01,0.0198618,1.00002,10.9999,9.99992,11.9999,1
0.02,0.0396049,1.00002,10.9996,9.99962,11.9996,1.00001
0.03,0.0591429,1.00007,10.9991,9.99917,11.9991,1.00002
0.04,0.0784939,1.00009,10.9984,9.99848,11.9984,1.00003
0.05,0.0976274,1.00012,10.9975,9.99762,11.9975,1.00004
0.06,0.116568,1.00015,10.9965,9.99657,11.9964,1.00005
0.07,0.135349,1.00017,10.9952,9.99534,11.9951,1.00004
0.08,0.154007,1.00017,10.9938,9.9939,11.9936,1.00003
0.09,0.172639,1.00017,10.9921,9.99228,11.992,1.00002
0.1,0.191637,1.00016,10.9903,9.99047,11.9902,1.00002
0.11,0.210862,1.00007,10.9883,9.98838,11.9883,1.00003
0.12,0.230113,1.00006,10.9861,9.98615,11.9862,1.00007
0.13,0.24891,1.0001,10.9837,9.98378,11.9837,1.00008
0.14,0.267209,1.00016,10.9811,9.98124,11.981,1.00006
0.15,0.285176,1.00027,10.9784,9.97861,11.9781,1.00002
0.16,0.302982,1.00029,10.9754,9.9757,11.9752,1.00002
0.17,0.321246,1.00026,10.9723,9.9725,11.9721,1.00007
0.18,0.339692,1.00017,10.969,9.96903,11.969,1.00015
0.19,0.357139,1.00028,10.9655,9.96567,11.9654,1.00016
0.2,0.374338,1.00039,10.9619,9.96215,11.9616,1.00009
0.21,0.391654,1.00051,10.958,9.9585,11.9576,1.00007
0.22,0.40948,1.00047,10.954,9.95449,11.9537,1.0001
0.23,0.426422,1.00036,10.9499,9.95007,11.9497,1.00018
0.24,0.443015,1.00032,10.9455,9.94559,11.9453,1.00018
0.25,0.460217,1.00041,10.941,9.94115,11.9406,1.00015
0.26,0.477234,1.00054,10.9363,9.9368,11.9359,1.0001
0.27,0.493671,1.00056,10.9314,9.93193,11.931,1.0001
0.28,0.510131,1.00051,10.9264,9.92674,11.926,1.00016
0.29,0.52678,1.00039,10.9212,9.92143,11.9211,1.00022
0.3,0.542843,1.00052,10.9159,9.91631,11.9157,1.00022
0.31,0.559023,1.00068,10.9104,9.9109,11.9099,1.00018
0.32,0.575063,1.00072,10.9047,9.90525,11.9041,1.00014
0.33,0.590674,1.00074,10.8989,9.89941,11.8983,1.00019
0.34,0.606658,1.00077,10.8929,9.89343,11.8924,1.00028
0.35,0.622311,1.00063,10.8868,9.88713,11.8865,1.0003
0.36,0.637807,1.00084,10.8805,9.88097,11.8798,1.00028
0.37,0.653541,1.00098,10.874,9.87473,11.8733,1.00025
0.38,0.668852,1.00088,10.8674,9.86816,11.8668,1.00022
0.39,0.68458,1.00096,10.8606,9.86133,11.86,1.0003
0.4,0.699508,1.00084,10.8537,9.85419,11.8532,1.00035
0.41,0.714714,1.00089,10.8466,9.84714,11.846,1.00033
0.42,0.729663,1.00095,10.8394,9.84007,11.8388,1.0003
0.43,0.744504,1.00114,10.832,9.83291,11.8312,1.00029
0.44,0.759303,1.0011,10.8245,9.82532,11.8237,1.0003
0.45,0.773867,1.00103,10.8169,9.8175,11.8162,1.00037
0.46,0.788458,1.00111,10.8091,9.80984,11.8084,1.00041
0.47,0.802906,1.00113,10.8011,9.80181,11.8004,1.00042
0.48,0.817298,1.00131,10.793,9.79395,11.7921,1.00036
0.49,0.83152,1.00135,10.7848,9.78563,11.7837,1.00041
0.5,0.845679,1.00141,10.7764,9.77741,11.7754,1.00041
0.51,0.859826,1.00128,10.7678,9.76862,11.7671,1.0005
0.52,0.873601,1.00142,10.7592,9.76012,11.7582,1.00047
0.53,0.887704,1.00142,10.7504,9.75124,11.7494,1.00051
0.54,0.901053,1.00154,10.7414,9.74261,11.7404,1.00042
0.55,0.914985,1.00156,10.7323,9.73343,11.7313,1.0005
0.56,0.928605,1.00162,10.7231,9.72427,11.7221,1.00051
0.57,0.942172,1.00149,10.7138,9.71469,11.7128,1.00055
0.58,0.955685,1.00166,10.7043,9.70537,11.7032,1.00056
0.59,0.968934,1.00167,10.6947,9.69586,11.6936,1.00053
0.6,0.982333,1.0018,10.6849,9.6861,11.6836,1.00053
0.61,0.995528,1.0018,10.675,9.67628,11.6739,1.00059
0.62,1.00855,1.00179,10.665,9.66619,11.6638,1.0006
0.63,1.0218,1.00184,10.6548,9.65608,11.6537,1.00066
0.64,1.03468,1.00192,10.6446,9.64586,11.6433,1.00063
0.65,1.04749,1.00204,10.6342,9.63555,11.6327,1.00061
0.66,1.06046,1.00207,10.6236,9.62506,11.6223,1.00066
0.67,1.07306,1.00204,10.6129,9.61431,11.6116,1.00069
0.68,1.08547,1.00208,10.6022,9.60355,11.6008,1.0007
0.69,1.09808,1.00219,10.5912,9.59264,11.5897,1.00073
0.7,1.11043,1.00216,10.5802,9.58166,11.5788,1.00072
0.71,1.12277,1.00227,10.569,9.57066,11.5675,1.0007
0.72,1.13505,1.00235,10.5577,9.55935,11.5562,1.00075
0.73,1.14732,1.0023,10.5463,9.54788,11.5449,1.00078
0.74,1.15932,1.00232,10.5348,9.53631,11.5333,1.00081
0.75,1.17148,1.00242,10.5231,9.52481,11.5215,1.00078
0.76,1.18351,1.00249,10.5114,9.51303,11.5097,1.00079
0.77,1.19552,1.00256,10.4995,9.50123,11.4978,1.00082
0.78,1.20734,1.00255,10.4875,9.48918,11.4858,1.00086
0.79,1.21903,1.00256,10.4753,9.47709,11.4737,1.00086
0.8,1.23072,1.00267,10.4631,9.46488,11.4613,1.00089
0.81,1.24236,1.00275,10.4507,9.4526,11.4489,1.0009
0.82,1.25399,1.00277,10.4382,9.44013,11.4364,1.00091
0.83,1.26542,1.00282,10.4256,9.42756,11.4238,1.00092
0.84,1.27689,1.00286,10.4129,9.4149,11.4111,1.00094
0.85,1.28818,1.00288,10.4001,9.40201,11.3982,1.00095
0.86,1.29952,1.00293,10.3872,9.38914,11.3853,1.00098
0.87,1.31068,1.00299,10.3741,9.37614,11.3721,1.00099
0.88,1.32181,1.00304,10.3609,9.36305,11.359,1.001
0.89,1.33284,1.00307,10.3477,9.3498,11.3457,1.00102
0.9,1.34382,1.00312,10.3343,9.33643,11.3322,1.00102
0.91,1.35482,1.00316,10.3208,9.32295,11.3187,1.00103
0.92,1.36578,1.00322,10.3072,9.30934,11.305,1.00106
0.93,1.37655,1.00326,10.2935,9.29568,11.2913,1.00108
0.94,1.38731,1.00332,10.2797,9.28193,11.2775,1.0011
0.95,1.39795,1.00336,10.2657,9.26804,11.2636,1.00113
0.96,1.40876,1.00343,10.2517,9.25406,11.2495,1.00115
0.97,1.41909,1.00351,10.2376,9.23998,11.2353,1.00115
0.98,1.42941,1.00356,10.2233,9.22579,11.221,1.00115
0.99,1.43968,1.00357,10.209,9.21143,11.2066,1.00117
1,1.44995,1.0036,10.1945,9.19699,11.1922,1.00119
1.01,1.46025,1.00362,10.18,9.18242,11.1776,1.00121
1.02,1.47048,1.00369,10.1653,9.16781,11.1629,1.00123
1.03,1.48069,1.00378,10.1506,9.15316,11.1481,1.00124
1.04,1.49074,1.00384,10.1357,9.13837,11.1332,1.00125
1.05,1.50058,1.00387,10.1208,9.12342,11.1182,1.00127
1.06,1.51042,1.00389,10.1057,9.10836,11.1032,1.0013
1.07,1.52021,1.00392,10.0906,9.09323,11.0881,1.00132
1.08,1.52998,1.00399,10.0753,9.07803,11.0727,1.00133
1.09,1.53983,1.00407,10.06,9.06277,11.0573,1.00134
1.1,1.5494,1.00412,10.0445,9.04736,11.0419,1.00135
1.11,1.55896,1.00415,10.029,9.03184,11.0263,1.00138
1.12,1.56859,1.00419,10.0133,9.01621,11.0107,1.00141
1.13,1.5783,1.00424,9.99759,9.00049,10.9949,1.00142
1.14,1.58757,1.00429,9.98177,8.98471,10.979,1.00143
1.15,1.59689,1.00436,9.96584,8.96885,10.963,1.00144
1.16,1.60623,1.0044,9.94983,8.95287,10.947,1.00146
1.17,1.6155,1.00443,9.93372,8.93677,10.9309,1.00148
1.18,1.62486,1.00446,9.91752,8.92057,10.9147,1.0015
1.19,1.63401,1.00451,9.90122,8.90432,10.8983,1.00151
1.2,1.64298,1.00457,9.88484,8.88799,10.8819,1.00151
1.21,1.65206,1.00462,9.86836,8.87155,10.8654,1.00152
1.22,1.661,1.00466,9.8518,8.85501,10.8488,1.00153
1.23,1.66992,1.0047,9.83514,8.83835,10.8321,1.00156
1.24,1.67888,1.00475,9.8184,8.82164,10.8153,1.00158
1.25,1.68765,1.00482,9.80157,8.80488,10.7985,1.00159
1.26,1.69654,1.00487,9.78465,8.78801,10.7815,1.00161
1.27,1.70518,1.00491,9.76764,8.77103,10.7645,1.00163
1.28,1.71385,1.00494,9.75054,8.75395,10.7474,1.00165
1.29,1.72231,1.00497,9.73336,8.73678,10.7302,1.00167
1.3,1.73099,1.00502,9.7161,8.71955,10.7129,1.00168
1.31,1.73943,1.00508,9.69875,8.70226,10.6955,1.00169
1.32,1.7477,1.00512,9.68131,8.68487,10.6781,1.0017
1.33,1.75594,1.00516,9.66379,8.66736,10.6605,1.00171
1.34,1.76417,1.00522,9.64619,8.64977,10.6429,1.00174
1.35,1.77231,1.0053,9.62851,8.63215,10.6251,1.00177
1.36,1.78052,1.00533,9.61075,8.61441,10.6073,1.00178
1.37,1.78854,1.00536,9.5929,8.5966,10.5895,1.00179
1.38,1.79659,1.00538,9.57498,8.57868,10.5716,1.0018
1.39,1.80459,1.00539,9.55697,8.5607,10.5536,1.0018
1.4,1.81247,1.00544,9.53888,8.54266,10.5354,1.00181
1.41,1.82036,1.0055,9.52072,8.5245,10.5172,1.00184
1.42,1.82829,1.0056,9.50248,8.50635,10.4989,1.00186
1.43,1.83594,1.00564,9.48416,8.48805,10.4806,1.00188
1.44,1.84357,1.00566,9.46576,8.46966,10.4622,1.0019
1.45,1.85107,1.00568,9.44729,8.45122,10.4437,1.00191
1.46,1.8586,1.00576,9.42874,8.43272,10.4251,1.00192
1.47,1.86602,1.00583,9.41012,8.41414,10.4064,1.00195
1.48,1.87354,1.0059,9.39142,8.3955,10.3877,1.00196
1.49,1.88099,1.00592,9.37265,8.37675,10.3689,1.00197
1.5,1.88828,1.0059,9.3538,8.35789,10.3501,1.00198
1.51,1.89572,1.00594,9.33488,8.339,10.3311,1.00199
1.52,1.90299,1.00601,9.31589,8.32004,10.3121,1.00201
1.53,1.91023,1.00606,9.29682,8.30103,10.293,1.00202
1.54,1.9175,1.00608,9.27768,8.2819,10.2739,1.00203
1.55,1.92455,1.00607,9.25847,8.26268,10.2546,1.00202
1.56,1.9317,1.00615,9.23919,8.24343,10.2353,1.00206
1.57,1.93866,1.00624,9.21984,8.22417,10.2159,1.00208
1.58,1.94556,1.00628,9.20042,8.20479,10.1965,1.0021
1.59,1.95232,1.00629,9.18093,8.1853,10.177,1.0021
1.6,1.95909,1.00637,9.16137,8.16578,10.1573,1.00213
1.61,1.96594,1.00645,9.14175,8.14623,10.1377,1.00215
1.62,1.97267,1.00648,9.12205,8.12657,10.118,1.00217
1.63,1.97943,1.00647,9.10229,8.10679,10.0982,1.00217
1.64,1.98622,1.00652,9.08247,8.08696,10.0783,1.00219
1.65,1.99287,1.0066,9.06257,8.06716,10.0584,1.0022
1.66,1.9994,1.0066,9.04261,8.04722,10.0385,1.0022
1.67,2.006,1.00657,9.02258,8.02716,10.0185,1.00221
1.68,2.0128,1.00665,9.00249,8.00707,9.9983,1.00224
1.69,2.01923,1.00671,8.98233,7.98702,9.97813,1.00224
1.7,2.02545,1.0067,8.96211,7.96681,9.95793,1.00224
1.71,2.03182,1.00674,8.94182,7.94648,9.93761,1.00228
1.72,2.03806,1.00684,8.92147,7.92622,9.91717,1.00229
1.73,2.04426,1.00688,8.90106,7.90587,9.89676,1.00229
1.74,2.05049,1.0069,8.88059,7.88538,9.87629,1.00232
1.75,2.05664,1.00699,8.86005,7.86488,9.85567,1.00235
1.76,2.06258,1.00705,8.83945,7.84439,9.83504,1.00234
1.77,2.0686,1.00705,8.8188,7.82373,9.81442,1.00236
1.78,2.07461,1.00711,8.79808,7.803,9.79365,1.0024
1.79,2.08063,1.00715,8.77731,7.78231,9.77286,1.00239
1.8,2.08669,1.00716,8.75647,7.76148,9.75201,1.00239
1.81,2.09268,1.00721,8.73557,7.74057,9.73107,1.00243
1.82,2.09858,1.00723,8.71462,7.71968,9.71013,1.00242
1.83,2.10441,1.00724,8.6936,7.69867,9.68912,1.00242
1.84,2.1101,1.00729,8.67253,7.67759,9.668,1.00246
1.85,2.11583,1.00731,8.6514,7.65653,9.64688,1.00245
1.86,2.12175,1.00735,8.63022,7.63535,9.62565,1.00247
1.87,2.12738,1.00741,8.60897,7.61413,9.60436,1.00249
1.88,2.1329,1.00744,8.58767,7.59289,9.58304,1.00249
1.89,2.13849,1.0075,8.56631,7.57152,9.56164,1.00252
1.9,2.14402,1.00753,8.5449,7.55013,9.54022,1.00254
1.91,2.14957,1.00758,8.52343,7.52876,9.51873,1.00253
1.92,2.15511,1.00764,8.50191,7.5072,9.49714,1.00258
1.93,2.16041,1.00766,8.48033,7.48568,9.47559,1.00257
1.94,2.16584,1.00773,8.4587,7.46412,9.45393,1.00259
1.95,2.17122,1.00775,8.43701,7.44239,9.4322,1.00261
1.96,2.17667,1.00773,8.41528,7.4207,9.41051,1.00259
1.97,2.18208,1.00782,8.39348,7.39892,9.38861,1.00263
1.98,2.18739,1.0078,8.37164,7.37707,9.36679,1.00262
1.99,2.19252,1.00784,8.34974,7.35526,9.34492,1.00262
2,2.19766,1.0079,8.32779,7.33327,9.32288,1.00266
2.01,2.20271,1.00786,8.30578,7.31129,9.30095,1.00264
2.02,2.20806,1.00798,8.28373,7.28931,9.27879,1.00268
2.03,2.21312,1.00799,8.26163,7.26719,9.25666,1.00268
2.04,2.21808,1.00805,8.23947,7.24514,9.23452,1.0027
2.05,2.22298,1.00812,8.21726,7.22291,9.21222,1.00273
2.06,2.22788,1.00808,8.19501,7.20067,9.19003,1.00272
2.07,2.23282,1.0082,8.17271,7.17842,9.16765,1.00276
2.08,2.23786,1.00818,8.15035,7.15607,9.14529,1.00274
2.09,2.24279,1.00827,8.12795,7.13375,9.12285,1.00278
2.1,2.24764,1.00827,8.1055,7.11128,9.10037,1.00278
2.11,2.25255,1.00827,8.083,7.08881,9.07793,1.00279
2.12,2.2574,1.00833,8.06045,7.06627,9.05531,1.0028
2.13,2.26218,1.0083,8.03785,7.04366,9.03274,1.0028
2.14,2.26704,1.00839,8.0152,7.02106,9.01002,1.00283
2.15,2.27155,1.00836,7.99251,6.99836,8.98735,1.0028
2.16,2.27613,1.00847,7.96977,6.97568,8.96455,1.00286
2.17,2.28091,1.00845,7.94699,6.9529,8.94178,1.00284
2.18,2.28549,1.00854,7.92416,6.93013,8.91889,1.00288
2.19,2.28996,1.00855,7.90128,6.90727,8.896,1.00287
2.2,2.29446,1.00861,7.87836,6.8844,8.87306,1.0029
2.21,2.29881,1.00863,7.85539,6.86144,8.85007,1.0029
2.22,2.30331,1.00866,7.83238,6.83844,8.82707,1.00293
2.23,2.30777,1.00871,7.80933,6.81542,8.80396,1.00294
2.24,2.31229,1.00871,7.78623,6.79232,8.78089,1.00294
2.25,2.31673,1.0088,7.76308,6.76924,8.75766,1.00296
2.26,2.32104,1.00876,7.73989,6.74603,8.73452,1.00296
2.27,2.32529,1.00885,7.71666,6.72285,8.71122,1.00298
2.28,2.3295,1.00879,7.69339,6.69955,8.68801,1.00297
2.29,2.33394,1.00891,7.67007,6.6763,8.66458,1.003
2.3,2.33816,1.00884,7.64671,6.65291,8.64128,1.00298
2.31,2.34238,1.00897,7.62331,6.62957,8.61778,1.00301
2.32,2.34646,1.00891,7.59986,6.60611,8.59441,1.00301
2.33,2.35058,1.00903,7.57638,6.58269,8.57082,1.00304
2.34,2.35453,1.00898,7.55285,6.55914,8.54735,1.00303
2.35,2.35874,1.00912,7.52929,6.53566,8.52367,1.00307
2.36,2.3627,1.00907,7.50568,6.51205,8.50014,1.00306
2.37,2.36662,1.00921,7.48204,6.48848,8.47637,1.00309
2.38,2.37072,1.00914,7.45835,6.46475,8.45277,1.00309
2.39,2.37478,1.00926,7.43462,6.4411,8.42893,1.00312
2.4,2.37866,1.00919,7.41086,6.41731,8.40526,1.00311
2.41,2.38247,1.00931,7.38705,6.39358,8.38133,1.00312
2.42,2.38632,1.00924,7.36321,6.3697,8.35758,1.00312
2.43,2.39006,1.00933,7.33932,6.34586,8.33359,1.00314
2.44,2.39389,1.00929,7.31541,6.32193,8.30975,1.00315
2.45,2.39758,1.00936,7.29145,6.298,8.28569,1.00314
2.46,2.40149,1.00937,7.26745,6.27401,8.26172,1.00316
2.47,2.40509,1.0094,7.24342,6.25002,8.23764,1.00315
2.48,2.40876,1.00945,7.21935,6.22597,8.21356,1.00319
2.49,2.41231,1.00945,7.19525,6.20189,8.18946,1.00318
2.5,2.41605,1.00952,7.1711,6.17774,8.16524,1.00322
2.51,2.41955,1.00953,7.14693,6.15362,8.1411,1.00321
2.52,2.42324,1.0096,7.12271,6.12941,8.11679,1.00323
2.53,2.42687,1.00958,7.09846,6.10519,8.09262,1.00324
2.54,2.43037,1.00966,7.07418,6.08093,8.06824,1.00325
2.55,2.43374,1.00964,7.04986,6.05663,8.044,1.00326
2.56,2.43723,1.00968,7.0255,6.03229,8.01956,1.00325
2.57,2.44074,1.00972,7.00111,6.00794,7.99518,1.00328
2.58,2.44407,1.00971,6.97669,5.98351,7.97074,1.00326
2.59,2.44749,1.00977,6.95223,5.95906,7.94623,1.0033
2.6,2.45079,1.00975,6.92774,5.93458,7.92179,1.00329
2.61,2.45424,1.00983,6.90322,5.91008,7.89717,1.00331
2.62,2.45745,1.0098,6.87866,5.88554,7.87271,1.00332
2.63,2.46057,1.00986,6.85407,5.86097,7.84801,1.00331
2.64,2.46407,1.00989,6.82945,5.83639,7.82342,1.00334
2.65,2.46734,1.00989,6.80479,5.81173,7.79873,1.00333
2.66,2.4707,1.00996,6.7801,5.78706,7.77399,1.00336
2.67,2.47372,1.00994,6.75538,5.76235,7.74931,1.00336
2.68,2.47676,1.01003,6.73063,5.73764,7.72446,1.00337
2.69,2.4799,1.01,6.70584,5.71287,7.69977,1.00339
2.7,2.48311,1.01004,6.68103,5.68807,7.67487,1.00337
2.71,2.48627,1.01008,6.65618,5.66325,7.65003,1.00341
2.72,2.48932,1.01006,6.6313,5.63836,7.62516,1.00339
2.73,2.49231,1.01015,6.6064,5.6135,7.60017,1.00341
2.74,2.49534,1.0101,6.58146,5.58855,7.57533,1.00342
2.75,2.49837,1.01015,6.55649,5.5636,7.55026,1.00341
2.76,2.50148,1.01018,6.53149,5.53864,7.52529,1.00344
2.77,2.50442,1.01018,6.50646,5.51359,7.50024,1.00343
2.78,2.50728,1.01027,6.4814,5.48859,7.4751,1.00346
2.79,2.51008,1.01022,6.45632,5.46349,7.45012,1.00347
2.8,2.513,1.01028,6.4312,5.43842,7.4249,1.00345
2.81,2.51593,1.01032,6.40606,5.41331,7.39979,1.00349
2.82,2.51883,1.01031,6.38089,5.38811,7.37459,1.00348
2.83,2.52162,1.01039,6.35568,5.36297,7.34931,1.00349
2.84,2.52451,1.01035,6.33045,5.33771,7.32417,1.00351
2.85,2.52723,1.01038,6.30519,5.31248,7.29883,1.00349
2.86,2.53017,1.01043,6.27991,5.28722,7.27355,1.00352
2.87,2.53289,1.0104,6.25459,5.26187,7.24825,1.00352
2.88,2.5355,1.01049,6.22925,5.23662,7.22283,1.00352
2.89,2.53832,1.01046,6.20388,5.21122,7.19753,1.00354
2.9,2.54105,1.01048,6.17848,5.18583,7.17208,1.00353
2.91,2.54377,1.01055,6.15306,5.16046,7.1466,1.00355
2.92,2.54654,1.01051,6.12761,5.13498,7.12123,1.00356
2.93,2.54912,1.01057,6.10213,5.10956,7.09566,1.00354
2.94,2.55177,1.01059,6.07663,5.08405,7.07017,1.00358
2.95,2.55429,1.01058,6.0511,5.0585,7.04465,1.00358
2.96,2.55676,1.01066,6.02554,5.03304,7.01902,1.00358
2.97,2.5595,1.01065,5.99996,5.00743,6.9935,1.00361
2.98,2.56196,1.01067,5.97435,4.98183,6.96784,1.0036
2.99,2.56443,1.01072,5.94872,4.95626,6.94217,1.0036
3,2.56693,1.01069,5.92306,4.93055,6.91657,1.00362
3.01,2.56934,1.01074,5.89738,4.90492,6.89083,1.00361
3.02,2.57206,1.01076,5.87168,4.87922,6.86511,1.00363
3.03,2.57455,1.01075,5.84594,4.85346,6.83941,1.00364
3.04,2.57688,1.01079,5.82019,4.82778,6.81359,1.00363
3.05,2.5793,1.01081,5.79441,4.80198,6.78782,1.00366
3.06,2.58174,1.01081,5.7686,4.77617,6.76203,1.00366
3.07,2.58396,1.01086,5.74277,4.75043,6.73615,1.00364
3.08,2.58644,1.01088,5.71692,4.72454,6.71031,1.00368
3.09,2.58893,1.01089,5.69105,4.69867,6.68443,1.00369
3.1,2.5912,1.01093,5.66514,4.67285,6.65848,1.00367
3.11,2.59366,1.01094,5.63922,4.64688,6.63256,1.0037
3.12,2.59593,1.01095,5.61327,4.62095,6.60661,1.00371
3.13,2.59813,1.011,5.5873,4.59505,6.58059,1.00369
3.14,2.60065,1.01099,5.56131,4.569,6.55463,1.00372
3.15,2.60295,1.011,5.53529,4.54301,6.52861,1.00372
3.16,2.60509,1.01105,5.50925,4.51703,6.50251,1.00371
3.17,2.60741,1.01105,5.48319,4.49093,6.47648,1.00374
3.18,2.60966,1.01106,5.4571,4.46486,6.45038,1.00374
3.19,2.61173,1.0111,5.431,4.43882,6.42423,1.00373
3.2,2.61398,1.01111,5.40487,4.41264,6.39811,1.00376
3.21,2.61622,1.01113,5.37872,4.38652,6.37196,1.00377
3.22,2.61833,1.01117,5.35255,4.36041,6.34574,1.00375
3.23,2.62045,1.01118,5.32635,4.33417,6.31954,1.00378
3.24,2.62248,1.01119,5.30014,4.30799,6.29336,1.00379
3.25,2.62461,1.01122,5.2739,4.28181,6.26707,1.00377
3.26,2.62675,1.01123,5.24765,4.2555,6.24082,1.0038
3.27,2.62876,1.01124,5.22137,4.22925,6.21456,1.00381
3.28,2.63086,1.01127,5.19507,4.20301,6.18821,1.00378
3.29,2.63299,1.01127,5.16875,4.17664,6.16189,1.00381
3.3,2.63481,1.01128,5.14241,4.15033,6.13558,1.00382
3.31,2.637,1.01131,5.11606,4.12402,6.10919,1.00381
3.32,2.63906,1.01133,5.08967,4.09762,6.08276,1.00382
3.33,2.64099,1.01136,5.06327,4.07123,6.05637,1.00385
3.34,2.64312,1.01138,5.03686,4.04487,6.02995,1.00384
3.35,2.64509,1.01141,5.01041,4.01843,6.00345,1.00384
3.36,2.64689,1.01142,4.98396,3.99194,5.977,1.00387
3.37,2.64883,1.01143,4.95748,3.96551,5.95055,1.00387
3.38,2.65059,1.01147,4.93098,3.93906,5.92399,1.00385
3.39,2.65255,1.01147,4.90446,3.91249,5.89748,1.00388
3.4,2.65451,1.01147,4.87793,3.88599,5.87098,1.00389
3.41,2.65628,1.0115,4.85138,3.85949,5.84438,1.00386
3.42,2.65833,1.0115,4.8248,3.83284,5.81779,1.00389
3.43,2.66016,1.01151,4.79821,3.80628,5.79124,1.0039
3.44,2.6614,1.01155,4.7716,3.77974,5.7646,1.00389
3.45,2.66295,1.01156,4.74498,3.75309,5.73793,1.00389
3.46,2.66487,1.01158,4.71834,3.72644,5.7113,1.00392
3.47,2.6666,1.01159,4.69169,3.69984,5.68467,1.00392
3.48,2.66824,1.01161,4.66501,3.6732,5.65794,1.0039
3.49,2.67019,1.01162,4.63832,3.64645,5.63125,1.00393
3.5,2.67193,1.01161,4.61161,3.61977,5.60461,1.00394
3.51,2.67353,1.01167,4.58489,3.59311,5.5778,1.00392
3.52,2.67527,1.01165,4.55814,3.56629,5.55103,1.00393
3.53,2.67714,1.01168,4.53138,3.53955,5.52429,1.00396
3.54,2.67892,1.0117,4.5046,3.51284,5.49751,1.00395
3.55,2.68047,1.01172,4.4778,3.48605,5.47066,1.00393
3.56,2.68211,1.01172,4.45099,3.45918,5.44386,1.00397
3.57,2.68365,1.01172,4.42416,3.4324,5.4171,1.00398
3.58,2.6849,1.01178,4.39732,3.40563,5.39018,1.00396
3.59,2.68644,1.01177,4.37046,3.3787,5.36329,1.00397
3.6,2.68803,1.0118,4.34359,3.35185,5.33644,1.004
3.61,2.6895,1.01183,4.3167,3.32503,5.30954,1.00399
3.62,2.69087,1.01184,4.2898,3.29814,5.28258,1.00397
3.63,2.69243,1.01184,4.26288,3.27114,5.25566,1.00401
3.64,2.69405,1.01185,4.23595,3.24427,5.22881,1.00402
3.65,2.69537,1.01189,4.20901,3.21739,5.2018,1.004
3.66,2.69684,1.01187,4.18204,3.19038,5.17482,1.004
3.67,2.69841,1.01189,4.15507,3.1634,5.14787,1.00403
3.68,2.6998,1.0119,4.12808,3.13647,5.1209,1.00402
3.69,2.70129,1.01192,4.10107,3.10948,5.09382,1.004
3.7,2.7027,1.0119,4.07405,3.08236,5.06678,1.00402
3.71,2.70378,1.01193,4.04702,3.05538,5.03981,1.00405
3.72,2.70555,1.01197,4.01997,3.0284,5.01273,1.00404
3.73,2.70684,1.01197,3.99291,3.00134,4.98562,1.00402
3.74,2.70817,1.01199,3.96584,2.97421,4.95854,1.00406
3.75,2.70944,1.012,3.93875,2.9472,4.93152,1.00407
3.76,2.71067,1.01206,3.91165,2.92017,4.90435,1.00406
3.77,2.71184,1.01205,3.88454,2.89299,4.87719,1.00405
3.78,2.71325,1.01205,3.85741,2.86585,4.8501,1.00409
3.79,2.71445,1.01207,3.83027,2.83877,4.823,1.00409
3.8,2.71551,1.0121,3.80312,2.81165,4.79577,1.00407
3.81,2.71675,1.01207,3.77596,2.78441,4.7686,1.00407
