time,velocity,ratio,centerX,Xmax,Xmin,Ymax
0,0,1,6,5,7,1
0.01,0.0198204,1.00005,5.9999,4.99994,6.99986,1.00001
0.02,0.0397494,1.00012,5.9996,4.99968,6.99953,1.00004
0.03,0.0596011,1.00015,5.99911,4.99921,6.99901,1.00005
0.04,0.0784719,1.0001,5.99842,4.99848,6.99834,1.00004
0.05,0.096369,1.00005,5.99754,4.99757,6.9975,1.00001
0.06,0.113932,1.00002,5.99649,4.9965,6.99647,1.00001
0.07,0.131699,1.00006,5.99526,4.99532,6.99521,1
0.08,0.149693,1.0001,5.99386,4.99394,6.99376,1.00001
0.09,0.168282,1.00006,5.99227,4.99235,6.99219,0.999975
0.1,0.190593,0.999947,5.99048,4.99047,6.99054,0.999983
0.11,0.220045,1.00003,5.98843,4.98851,6.98852,1.00004
0.12,0.25129,1.00028,5.98608,4.98632,6.98597,1.00011
0.13,0.27852,1.00037,5.98342,4.98369,6.98321,1.00013
0.14,0.298579,1.00016,5.98053,4.98068,6.98043,1.00004
0.15,0.316328,0.999846,5.97746,4.97739,6.97753,0.999919
0.16,0.337279,0.999748,5.9742,4.97408,6.97438,0.999899
0.17,0.369794,1.00003,5.97067,4.97073,6.97088,1.0001
0.18,0.395433,1.0007,5.96683,4.96738,6.96635,1.00018
0.19,0.412464,1.00052,5.96278,4.96309,6.96241,1.00018
0.2,0.43152,0.999998,5.95857,4.95872,6.95857,0.999924
0.21,0.462153,0.999466,5.95411,4.95375,6.95473,0.999955
0.22,0.486334,1.00012,5.94935,4.94955,6.94915,0.999917
0.23,0.504564,1.00039,5.9444,4.94459,6.94412,1.00016
0.24,0.532437,1.00059,5.93922,4.93979,6.93899,1.00019
0.25,0.554121,1.00041,5.93377,4.93402,6.93343,1.00011
0.26,0.570328,0.999931,5.92815,4.92809,6.92808,0.999928
0.27,0.59718,0.99963,5.92232,4.92212,6.92277,0.999952
0.28,0.616664,1.00022,5.91624,4.9165,6.91601,0.999972
0.29,0.636133,1.00046,5.90999,4.91012,6.9096,1.0002
0.3,0.659977,1.00065,5.90349,4.90398,6.90314,1.00023
0.31,0.675106,1.00026,5.89681,4.89712,6.89663,1.00001
0.32,0.701117,0.999654,5.88994,4.88947,6.89022,1.00003
0.33,0.717722,1.00004,5.88284,4.88314,6.88256,0.999749
0.34,0.73957,0.999837,5.87557,4.87531,6.87616,1.00026
0.35,0.757041,1.00103,5.86808,4.86892,6.86691,1.00002
0.36,0.778994,1.00031,5.86042,4.86039,6.86057,1.0004
0.37,0.795011,1.00055,5.85254,4.85331,6.85187,0.999831
0.38,0.815893,0.99944,5.8445,4.84376,6.84517,1.00014
0.39,0.833179,1.00027,5.83624,4.83659,6.83555,0.999745
0.4,0.854943,1.00006,5.82782,4.82782,6.8283,1.0003
0.41,0.86786,1.00092,5.8192,4.81987,6.81814,1.00005
0.42,0.889288,1.00027,5.81042,4.81033,6.81046,1.00034
0.43,0.899663,1.00041,5.80149,4.80214,6.80113,0.999905
0.44,0.91687,0.999804,5.79239,4.79198,6.7925,1.00006
0.45,0.933194,1.00007,5.78315,4.78336,6.78311,0.999951
0.46,0.946724,1.00043,5.77375,4.77418,6.77355,1.00011
0.47,0.965307,1.0006,5.76419,4.76446,6.76382,1.00029
0.48,0.979428,1.00062,5.75447,4.75523,6.75407,1.00004
0.49,0.996753,0.999856,5.74457,4.74419,6.74482,1.00017
0.5,1.0156,1.00028,5.73453,4.73523,6.73432,0.999824
0.51,1.02774,0.999952,5.72431,4.72391,6.72447,1.00023
0.52,1.04281,1.00087,5.71394,4.71477,6.71312,1.00004
0.53,1.05836,1.00036,5.70345,4.70374,6.70378,1.00037
0.54,1.06993,1.00069,5.69281,4.69339,6.6918,0.999897
0.55,1.085,0.999741,5.68203,4.68147,6.68247,1.00024
0.56,1.10195,1.0004,5.6711,4.67213,6.67095,0.999811
0.57,1.11337,1.00003,5.66003,4.65933,6.65984,1.00028
0.58,1.12787,1.00107,5.64882,4.64975,6.64775,1.00006
0.59,1.14255,1.00039,5.63747,4.63795,6.63797,1.0004
0.6,1.15907,1.00053,5.62597,4.62609,6.62491,0.999941
0.61,1.17149,0.999889,5.61432,4.61403,6.61452,1.00013
0.62,1.18718,1.00038,5.60252,4.60326,6.60241,0.999955
0.63,1.20188,1.0004,5.59057,4.59044,6.59021,1.00028
0.64,1.21593,1.00087,5.57849,4.5791,6.57771,1.00017
0.65,1.22795,1.00052,5.56628,4.56688,6.56631,1.00023
0.66,1.24148,1.0004,5.55393,4.5539,6.55327,1.00008
0.67,1.25429,1.00018,5.54144,4.54175,6.54151,1.00006
0.68,1.26812,1.00022,5.52883,4.52912,6.52891,1.00012
0.69,1.281,1.00063,5.51609,4.51642,6.51544,1.00014
0.7,1.2912,1.00063,5.50324,4.50358,6.5029,1.0003
0.71,1.30189,1.00077,5.49027,4.49111,6.4898,1.00012
0.72,1.31406,1.00028,5.47718,4.47709,6.4769,1.00019
0.73,1.32635,1.0004,5.46398,4.46462,6.46381,0.999997
0.74,1.33859,1.00013,5.45065,4.45054,6.45074,1.00023
0.75,1.34986,1.00082,5.43722,4.43789,6.43644,1.0001
0.76,1.35995,1.00055,5.42368,4.42392,6.42352,1.00035
0.77,1.37068,1.00084,5.41003,4.41073,6.40927,1.00011
0.78,1.38196,1.00026,5.39626,4.39619,6.39613,1.00023
0.79,1.39396,1.00062,5.38238,4.38311,6.38188,1
0.8,1.40478,1.00037,5.36838,4.36833,6.36813,1.00027
0.81,1.41681,1.00072,5.35427,4.35492,6.35374,1.00013
0.82,1.4291,1.00039,5.34004,4.34031,6.34007,1.00028
0.83,1.44227,1.00059,5.32568,4.32607,6.32508,1.00009
0.84,1.45642,1.00043,5.3112,4.31153,6.31106,1.0002
0.85,1.46989,1.00066,5.29657,4.29719,6.29614,1.00014
0.86,1.48236,1.00074,5.28182,4.28209,6.28115,1.00026
0.87,1.49408,1.00087,5.26694,4.26766,6.26643,1.00025
0.88,1.50513,1.00065,5.25195,4.25244,6.25156,1.00021
0.89,1.51601,1.00041,5.23685,4.23687,6.23634,1.00015
0.9,1.52719,1.00052,5.22163,4.22215,6.22135,1.00012
0.91,1.53838,1.00067,5.2063,4.20676,6.20589,1.00024
0.92,1.54908,1.00096,5.19086,4.19138,6.18993,1.00024
0.93,1.56011,1.00075,5.17532,4.17586,6.17498,1.00031
0.94,1.57162,1.00073,5.15966,4.16026,6.15912,1.00016
0.95,1.58292,1.00037,5.14388,4.14386,6.1435,1.00019
0.96,1.59363,1.00064,5.128,4.12864,6.12759,1.00011
0.97,1.60392,1.00067,5.11201,4.11234,6.11162,1.0003
0.98,1.61492,1.00112,5.09592,4.09663,6.09488,1.00024
0.99,1.62594,1.00081,5.07972,4.08024,6.0793,1.00034
1,1.63725,1.00072,5.06341,4.06395,6.06279,1.00014
1.01,1.64819,1.00039,5.04698,4.047,6.04664,1.00021
1.02,1.65829,1.00071,5.03046,4.03108,6.02993,1.00013
1.03,1.66832,1.00079,5.01383,4.01425,6.01331,1.00032
1.04,1.67823,1.00104,4.9971,3.99777,5.99629,1.00029
1.05,1.68762,1.00077,4.98027,3.98078,5.9799,1.00033
1.06,1.69763,1.0006,4.96335,3.96376,5.96292,1.00018
1.07,1.7076,1.0004,4.94632,3.94661,5.94615,1.00017
1.08,1.71727,1.00062,4.92919,3.92973,5.92888,1.0002
1.09,1.72598,1.00094,4.91197,3.91266,5.91135,1.00029
1.1,1.73528,1.00109,4.89466,3.89554,5.89401,1.00033
1.11,1.74485,1.0009,4.87726,3.87801,5.87675,1.00027
1.12,1.75483,1.00062,4.85977,3.86021,5.8594,1.00022
1.13,1.76357,1.00061,4.84218,3.84274,5.84183,1.00016
1.14,1.77229,1.00067,4.8245,3.82493,5.82413,1.00027
1.15,1.78041,1.00097,4.80674,3.80742,5.80606,1.00029
1.16,1.78881,1.00092,4.78889,3.78952,5.78841,1.00037
1.17,1.79789,1.00098,4.77095,3.77167,5.77014,1.00022
1.18,1.80735,1.00068,4.75292,3.75334,5.75243,1.00023
1.19,1.81722,1.00071,4.7348,3.73541,5.73437,1.00019
1.2,1.82522,1.00078,4.71659,3.71699,5.71608,1.00032
1.21,1.83296,1.00109,4.6983,3.69902,5.69745,1.0003
1.22,1.84107,1.00092,4.67993,3.68058,5.67945,1.00036
1.23,1.8501,1.0009,4.66147,3.66206,5.66073,1.00023
1.24,1.85941,1.00069,4.64292,3.64332,5.64244,1.00025
1.25,1.86818,1.00081,4.62429,3.62497,5.62379,1.00022
1.26,1.87589,1.00089,4.60557,3.6061,5.60499,1.00033
1.27,1.8839,1.00102,4.58677,3.58745,5.58608,1.00034
1.28,1.89246,1.00099,4.56788,3.56865,5.56733,1.00033
1.29,1.90147,1.00093,4.54891,3.54959,5.5482,1.00024
1.3,1.90968,1.00077,4.52986,3.53043,5.52936,1.00024
1.31,1.91776,1.00074,4.51072,3.51128,5.51039,1.0003
1.32,1.9256,1.00097,4.4915,3.49212,5.49086,1.00034
1.33,1.93395,1.00115,4.4722,3.47302,5.47141,1.00035
1.34,1.94262,1.00112,4.45282,3.45379,5.45211,1.00028
1.35,1.95101,1.00076,4.43336,3.43386,5.43293,1.0003
1.36,1.95925,1.00071,4.41381,3.41432,5.41344,1.00027
1.37,1.96763,1.00095,4.39417,3.39482,5.39355,1.00031
1.38,1.97624,1.0013,4.37445,3.3755,5.37349,1.00029
1.39,1.98385,1.00102,4.35465,3.35534,5.3541,1.0004
1.4,1.9918,1.00085,4.33477,3.33534,5.33433,1.00035
1.41,2.00034,1.00089,4.31481,3.31536,5.31417,1.00029
1.42,2.00813,1.00112,4.29477,3.29573,5.29391,1.0002
1.43,2.0144,1.00088,4.27466,3.27521,5.27421,1.00038
1.44,2.02146,1.00101,4.25447,3.25504,5.25386,1.00043
1.45,2.02882,1.00122,4.23422,3.2351,5.23334,1.00034
1.46,2.03422,1.00115,4.21391,3.21489,5.21305,1.00023
1.47,2.03998,1.00068,4.19354,3.19395,5.19332,1.00037
1.48,2.04669,1.00089,4.1731,3.1736,5.17251,1.00035
1.49,2.05074,1.0013,4.15262,3.15369,5.15164,1.00028
1.5,2.05535,1.0012,4.13209,3.13298,5.13131,1.00036
1.51,2.06137,1.0009,4.1115,3.11201,5.11107,1.00043
1.52,2.06647,1.00097,4.09087,3.09154,5.09017,1.00029
1.53,2.07125,1.00104,4.07018,3.07106,5.06945,1.00023
1.54,2.07736,1.00098,4.04943,3.05007,5.04886,1.00037
1.55,2.08248,1.0011,4.02863,3.02935,5.02796,1.0004
1.56,2.08761,1.00118,4.00778,3.00865,5.00702,1.00036
1.57,2.09471,1.00114,3.98687,2.98774,4.98612,1.00033
1.58,2.10123,1.00093,3.96589,2.96652,4.96532,1.00033
1.59,2.10735,1.00094,3.94485,2.94555,4.94431,1.00031
1.6,2.11387,1.0011,3.92374,2.92446,4.92304,1.00039
1.61,2.11928,1.00132,3.90258,2.90358,4.90166,1.00035
1.62,2.12467,1.00116,3.88136,2.88216,4.88068,1.00041
1.63,2.13119,1.00104,3.86008,2.86078,4.85944,1.00037
1.64,2.13615,1.001,3.83874,2.83947,4.83806,1.0003
1.65,2.14165,1.00108,3.81735,2.81815,4.81663,1.00032
1.66,2.14749,1.00116,3.79591,2.7967,4.79522,1.00042
1.67,2.15256,1.00124,3.77441,2.77528,4.77358,1.00039
1.68,2.15903,1.0012,3.75285,2.75368,4.75209,1.0004
1.69,2.16521,1.00112,3.73123,2.73209,4.73053,1.00034
1.7,2.17078,1.00102,3.70955,2.71025,4.70891,1.00035
1.71,2.17682,1.00109,3.68781,2.68853,4.68711,1.00038
1.72,2.18138,1.00125,3.66602,2.66696,4.66521,1.00037
1.73,2.18712,1.00128,3.64418,2.64503,4.64333,1.00043
1.74,2.19273,1.00122,3.62228,2.62318,4.62156,1.00041
1.75,2.19813,1.0011,3.60032,2.6011,4.59961,1.00036
1.76,2.20417,1.00108,3.57831,2.57906,4.57762,1.00036
1.77,2.20876,1.00115,3.55625,2.55709,4.55552,1.00037
1.78,2.21421,1.00128,3.53413,2.535,4.53332,1.00044
1.79,2.21946,1.00134,3.51196,2.51295,4.51115,1.00043
1.8,2.22472,1.00125,3.48974,2.49063,4.4889,1.00038
1.81,2.23076,1.00109,3.46747,2.46822,4.4668,1.00038
1.82,2.23582,1.00108,3.44513,2.44596,4.44448,1.00034
1.83,2.24131,1.00122,3.42275,2.42354,4.42197,1.00043
1.84,2.24558,1.00137,3.40031,2.40137,4.39945,1.00041
1.85,2.25092,1.0013,3.37783,2.37868,4.37698,1.00045
1.86,2.25559,1.00121,3.3553,2.35623,4.35458,1.00038
1.87,2.26015,1.00116,3.33272,2.3335,4.33195,1.00039
1.88,2.26519,1.00122,3.31009,2.311,4.30934,1.00039
1.89,2.26896,1.00129,3.28742,2.28833,4.2866,1.00043
1.9,2.27373,1.00134,3.26471,2.2656,4.26382,1.00045
1.91,2.27708,1.00128,3.24195,2.24294,4.24121,1.00041
1.92,2.28241,1.0012,3.21916,2.2199,4.21833,1.00041
1.93,2.28608,1.00118,3.19631,2.19728,4.19566,1.00036
1.94,2.29091,1.00123,3.17343,2.17417,4.17255,1.00042
1.95,2.2943,1.00135,3.1505,2.15161,4.14976,1.00042
1.96,2.29863,1.00139,3.12754,2.12836,4.12652,1.00046
1.97,2.3023,1.00131,3.10454,2.10564,4.10385,1.00042
1.98,2.30672,1.00123,3.08149,2.08222,4.0806,1.00042
1.99,2.31054,1.0012,3.05841,2.05938,4.05775,1.00039
2,2.3135,1.00132,3.03529,2.03614,4.03437,1.00044
2.01,2.31699,1.00137,3.01213,2.01319,4.01134,1.00045
2.02,2.32051,1.00142,2.98895,1.9899,3.98799,1.00046
2.03,2.32365,1.00129,2.96573,1.9667,3.96494,1.00041
2.04,2.32732,1.00127,2.94247,1.94339,3.94166,1.00041
2.05,2.33082,1.00124,2.91918,1.92003,3.91836,1.0004
2.06,2.33372,1.00139,2.89586,1.8969,3.89502,1.00044
2.07,2.33693,1.0014,2.8725,1.87343,3.87154,1.00046
2.08,2.33982,1.00143,2.84912,1.85024,3.8483,1.00045
2.09,2.34352,1.00127,2.8257,1.8265,3.82479,1.00042
2.1,2.34653,1.00129,2.80225,1.80333,3.80157,1.00041
2.11,2.35012,1.00129,2.77877,1.77953,3.7778,1.00042
2.12,2.35287,1.00143,2.75526,1.75646,3.75451,1.00046
2.13,2.3561,1.00141,2.73171,1.73253,3.73065,1.00047
2.14,2.35931,1.00143,2.70814,1.70938,3.70743,1.00045
2.15,2.36298,1.00128,2.68452,1.68523,3.68351,1.00042
2.16,2.36629,1.00134,2.66088,1.66208,3.66025,1.00042
2.17,2.36972,1.00133,2.6372,1.63792,3.63615,1.00044
2.18,2.37301,1.00149,2.61349,1.61478,3.61275,1.00047
2.19,2.37655,1.00143,2.58974,1.59055,3.58864,1.00047
2.2,2.38016,1.00144,2.56596,1.56722,3.56527,1.00046
2.21,2.38394,1.0013,2.54213,1.54286,3.54113,1.00043
2.22,2.38799,1.00138,2.51828,1.51947,3.51763,1.00045
2.23,2.39114,1.00139,2.49438,1.4952,3.49334,1.00045
2.24,2.39486,1.0015,2.47045,1.47168,3.4697,1.0005
2.25,2.3978,1.00144,2.44649,1.44737,3.44542,1.00047
2.26,2.40163,1.00143,2.42249,1.42366,3.42176,1.00048
2.27,2.40448,1.00132,2.39846,1.39931,3.39754,1.00043
2.28,2.40794,1.00142,2.3744,1.37549,3.37361,1.00047
2.29,2.4098,1.00144,2.35031,1.35128,3.34936,1.00048
2.3,2.41248,1.00155,2.3262,1.32735,3.32526,1.0005
2.31,2.41437,1.00148,2.30206,1.30308,3.30111,1.0005
2.32,2.41659,1.00145,2.27791,1.27901,3.27704,1.00046
2.33,2.41853,1.00142,2.25373,1.25472,3.25284,1.00047
2.34,2.41976,1.00143,2.22954,1.23061,3.22868,1.00046
2.35,2.42138,1.00154,2.20534,1.20641,3.20435,1.00051
2.36,2.4221,1.00151,2.18112,1.18224,3.1802,1.00049
2.37,2.42411,1.00151,2.15689,1.15791,3.15591,1.00051
2.38,2.4249,1.00139,2.13264,1.13374,3.13186,1.00045
2.39,2.4266,1.00146,2.10838,1.10935,3.1074,1.00048
2.4,2.4273,1.00147,2.08411,1.08525,3.08329,1.00048
2.41,2.42854,1.00158,2.05983,1.06091,3.05877,1.00051
2.42,2.42922,1.00157,2.03555,1.03677,3.03467,1.00052
2.43,2.43006,1.00153,2.01125,1.0123,3.01023,1.00049
2.44,2.43087,1.00149,1.98695,0.988104,2.98611,1.0005
2.45,2.43087,1.00147,1.96264,0.963675,2.96168,1.00047
2.46,2.43133,1.00155,1.93833,0.939461,2.93741,1.00052
2.47,2.43048,1.00155,1.91402,0.915161,2.91307,1.0005
2.48,2.4304,1.0016,1.88971,0.89085,2.88872,1.00053
2.49,2.42952,1.00154,1.86541,0.866572,2.8645,1.0005
2.5,2.42892,1.00152,1.84112,0.84221,2.84015,1.00049
2.51,2.42766,1.00155,1.81684,0.818029,2.81594,1.00051
2.52,2.42595,1.00159,1.79257,0.793698,2.79155,1.00051
2.53,2.42445,1.00167,1.76832,0.769593,2.76735,1.00055
2.54,2.42187,1.00159,1.74409,0.745251,2.74309,1.00051
2.55,2.4201,1.00159,1.71988,0.721058,2.71893,1.00053
2.56,2.41694,1.00151,1.69569,0.696834,2.6948,1.00049
2.57,2.41417,1.00162,1.67154,0.672727,2.67056,1.00053
2.58,2.41022,1.00163,1.64741,0.64867,2.64647,1.00053
2.59,2.40638,1.00171,1.62333,0.624558,2.62225,1.00055
2.6,2.40187,1.00166,1.59929,0.600598,2.59835,1.00054
2.61,2.39745,1.00166,1.57529,0.576518,2.57425,1.00053
2.62,2.39215,1.00165,1.55135,0.552655,2.55043,1.00053
2.63,2.38621,1.00169,1.52745,0.528701,2.52639,1.00054
2.64,2.37968,1.00177,1.50363,0.505039,2.50263,1.00057
2.65,2.37206,1.00175,1.47987,0.48117,2.47878,1.00056
2.66,2.36434,1.00178,1.45618,0.457604,2.4552,1.00057
2.67,2.35554,1.00171,1.43258,0.433907,2.43157,1.00054
2.68,2.34654,1.00178,1.40907,0.410493,2.40808,1.00057
2.69,2.33597,1.00179,1.38566,0.387075,2.38462,1.00056
2.7,2.32481,1.00191,1.36236,0.363897,2.3613,1.0006
2.71,2.312,1.0019,1.33917,0.340692,2.33808,1.00059
2.72,2.29861,1.00193,1.31612,0.317723,2.31508,1.0006
2.73,2.28384,1.00188,1.29321,0.294741,2.29214,1.00058
2.74,2.26805,1.00198,1.27045,0.272158,2.26942,1.0006
2.75,2.25059,1.00203,1.24785,0.24951,2.24669,1.00061
2.76,2.23048,1.00215,1.22545,0.227401,2.22437,1.00063
2.77,2.20884,1.00217,1.20325,0.205016,2.20201,1.00067
2.78,2.18408,1.00223,1.18128,0.183414,2.18025,1.00064
2.79,2.15806,1.00229,1.15957,0.161476,2.15828,1.00069
2.8,2.12896,1.00245,1.13814,0.140568,2.13706,1.00069
2.81,2.09614,1.0026,1.11701,0.119387,2.11561,1.00071
2.82,2.06039,1.00276,1.09623,0.0989982,2.09507,1.00079
2.83,2.01803,1.00308,1.07583,0.0788707,2.07432,1.0008
2.84,1.96892,1.0034,1.05589,0.0595876,2.05449,1.00084
2.85,1.91189,1.00393,1.03648,0.0408331,2.03483,1.00092
2.86,1.84127,1.00488,1.01771,0.0236497,2.01601,1.00104
2.87,1.74517,1.0073,0.999753,0.00964662,1.99762,1.00124
2.88,1.60068,1.01171,0.982973,-0,1.9801,1.00164
2.89,1.36969,1.02099,0.968028,2.82563e-08,1.96391,1.00256
2.9,0.987249,1.03062,0.956105,1.13304e-07,1.94919,1.00444
2.91,0.470762,1.03951,0.948751,1.94535e-07,1.93727,1.00691
2.92,-0.072417,1.04289,0.946748,4.1261e-08,1.93242,1.00765
2.93,-0.591955,1.03766,0.950103,5.34901e-08,1.93994,1.00649
2.94,-1.0384,1.02852,0.95834,2.72544e-08,1.95192,1.00379
2.95,-1.33402,1.01916,0.970319,1.10687e-08,1.96659,1.00214
2.96,-1.47758,1.01023,0.98448,-0,1.98217,1.00122
2.97,-1.50225,1.00201,0.999473,0.000495428,1.99785,1.00068
2.98,-1.42518,0.996476,1.01417,0.00770047,2.01402,0.999625
2.99,-1.29875,0.994207,1.02779,0.0219682,2.03015,0.998275
3,-1.20265,0.995264,1.04025,0.037616,2.04374,0.998311
3.01,-1.15573,1.0009,1.052,0.05292,2.05176,1.00032
3.02,-1.14386,1.00685,1.06347,0.0675498,2.05812,1.0021
3.03,-1.17269,1.00682,1.07503,0.08018,2.07093,1.00217
3.04,-1.20171,1.00203,1.08692,0.0895078,2.08634,1.00044
3.05,-1.16552,0.996268,1.09883,0.0946738,2.10019,0.999017
3.06,-1.08405,0.995002,1.11007,0.105851,2.11234,0.998228
3.07,-1.02727,0.998233,1.12059,0.120514,2.12293,0.999439
3.08,-1.00648,1.00423,1.13074,0.133666,2.1278,1.00129
3.09,-1.01292,1.00679,1.14083,0.144754,2.13569,1.00223
3.1,-1.02859,1.00358,1.15103,0.15443,2.14938,1.00105
3.11,-1.0198,0.99777,1.16132,0.159746,2.16271,0.99925
3.12,-0.965131,0.994962,1.17126,0.166778,2.17371,0.998408
3.13,-0.902898,0.997431,1.18058,0.179138,2.1824,0.999056
3.14,-0.877786,1.00265,1.18946,0.191883,2.18839,1.0009
3.15,-0.878787,1.00615,1.19823,0.202238,2.19386,1.00194
3.16,-0.879823,1.00403,1.20702,0.209571,2.2042,1.00133
3.17,-0.872404,0.998578,1.21579,0.215362,2.21707,0.999431
3.18,-0.842356,0.995181,1.2244,0.220789,2.2274,0.998472
3.19,-0.78399,0.997132,1.23252,0.230016,2.23376,0.999
3.2,-0.759261,1.00208,1.24021,0.242272,2.23956,1.00072
3.21,-0.759779,1.00562,1.24779,0.251965,2.24425,1.00174
3.22,-0.755595,1.00381,1.25538,0.257242,2.25221,1.00128
3.23,-0.74391,0.9988,1.26287,0.262323,2.26376,0.999519
3.24,-0.717428,0.995422,1.2702,0.267193,2.27349,0.998555
3.25,-0.669534,0.997252,1.27714,0.274571,2.27809,0.999007
3.26,-0.641389,1.00182,1.28368,0.28493,2.28279,1.00075
3.27,-0.640388,1.00533,1.29006,0.294386,2.28681,1.00152
3.28,-0.635217,1.00338,1.29647,0.29801,2.29381,1.00128
3.29,-0.607825,0.998888,1.30269,0.302072,2.30303,0.999366
3.3,-0.576906,0.995269,1.30862,0.305561,2.31232,0.998634
3.31,-0.551069,0.997515,1.31426,0.312037,2.31506,0.999021
3.32,-0.526888,1.00191,1.31965,0.320598,2.31818,1.0007
3.33,-0.521743,1.00484,1.32488,0.328859,2.32226,1.00152
3.34,-0.510361,1.00306,1.33005,0.331921,2.32783,1.001
3.35,-0.477484,0.998493,1.335,0.333745,2.33563,0.999436
3.36,-0.447654,0.995673,1.33962,0.337119,2.34287,0.998537
3.37,-0.431865,0.997549,1.34401,0.341968,2.3454,0.999258
3.38,-0.401079,1.00232,1.34818,0.349594,2.34647,1.00075
3.39,-0.393375,1.00485,1.35213,0.356117,2.34951,1.00154
3.4,-0.403449,1.00268,1.35611,0.357723,2.35417,1.00089
3.41,-0.401145,0.998246,1.36015,0.358289,2.36091,0.999555
3.42,-0.378371,0.996289,1.36406,0.361941,2.3668,0.998711
3.43,-0.347459,0.998188,1.36769,0.366773,2.36912,0.99936
3.44,-0.330836,1.00217,1.37106,0.372033,2.36916,1.00073
3.45,-0.327345,1.00418,1.37435,0.377178,2.37174,1.00145
3.46,-0.322326,1.00225,1.37762,0.379753,2.3764,1.00057
3.47,-0.287398,0.99797,1.38067,0.378928,2.3818,0.999405
3.48,-0.260318,0.996541,1.38343,0.380993,2.38533,0.998703
3.49,-0.229345,0.998396,1.38585,0.384838,2.38716,0.999556
3.5,-0.239032,1.00238,1.38816,0.389583,2.38666,1.00092
3.51,-0.264379,1.00443,1.39068,0.3926,2.38693,1.00158
3.52,-0.294163,1.00243,1.39348,0.395381,2.39211,1.00079
3.53,-0.29154,0.998285,1.39643,0.395231,2.39781,0.999573
3.54,-0.266118,0.996684,1.39924,0.396528,2.40068,0.998753
3.55,-0.225527,0.998219,1.40171,0.400647,2.4032,0.999495
3.56,-0.200623,1.00191,1.40381,0.405661,2.40299,1.00057
3.57,-0.181891,1.0036,1.40572,0.4074,2.40285,1.00132
3.58,-0.165645,1.00213,1.40746,0.409302,2.40602,1.00049
3.59,-0.134789,0.99816,1.40895,0.408238,2.41096,0.999519
3.6,-0.111211,0.997051,1.41018,0.407612,2.41122,0.99885
3.61,-0.0848646,0.998634,1.41117,0.409857,2.41196,0.999682
3.62,-0.0704374,1.00214,1.41192,0.414266,2.41124,1.00062
3.63,-0.0647132,1.00333,1.4126,0.414346,2.40993,1.00112
3.64,-0.0495676,1.00132,1.41318,0.413799,2.41188,1.00036
3.65,-0.0338519,0.998008,1.4136,0.412936,2.41565,0.999363
3.66,-0.00814808,0.997105,1.41382,0.411561,2.41537,0.999004
3.67,0.0196463,0.999256,1.41376,0.412824,2.41369,0.999688
