time,velocity,ratio,centerX,Xmax,Xmin,Ymax
0,0,1,2.75,1.75,3.75,1
0.01,0.0194832,1,2.7499,1.74991,3.7499,1
0.02,0.038841,0.999994,2.74961,1.74961,3.74962,1
0.03,0.0580321,1.00001,2.74913,1.74914,3.74912,1
0.04,0.0770707,1.00003,2.74846,1.74848,3.74844,1.00001
0.05,0.095936,1.00006,2.74759,1.74765,3.74755,1.00002
0.06,0.114661,1.0001,2.74654,1.74662,3.74648,1.00003
0.07,0.133236,1.00014,2.74531,1.74542,3.74521,1.00003
0.08,0.151671,1.00017,2.74388,1.74402,3.74376,1.00004
0.09,0.169971,1.00021,2.74228,1.74245,3.74212,1.00004
0.1,0.188181,1.00027,2.74049,1.74069,3.74029,1.00007
0.11,0.206282,1.00035,2.73852,1.73878,3.73828,1.0001
0.12,0.224259,1.00043,2.73637,1.7367,3.73607,1.00012
0.13,0.24206,1.00048,2.73404,1.73441,3.73374,1.00015
0.14,0.259717,1.00054,2.73153,1.73193,3.73121,1.00018
0.15,0.277217,1.00062,2.72885,1.72929,3.72848,1.00022
0.16,0.294602,1.00075,2.72599,1.7265,3.7255,1.00025
0.17,0.311887,1.00089,2.72296,1.72356,3.72235,1.00029
0.18,0.329056,1.00103,2.71976,1.72044,3.71904,1.00033
0.19,0.346067,1.00114,2.71638,1.71715,3.71559,1.00036
0.2,0.362905,1.00122,2.71284,1.71366,3.71202,1.0004
0.21,0.379641,1.00136,2.70913,1.71004,3.70821,1.00045
0.22,0.396282,1.00157,2.70525,1.70631,3.70419,1.00051
0.23,0.412748,1.00178,2.70121,1.70242,3.69998,1.00056
0.24,0.429067,1.00191,2.697,1.69833,3.69569,1.00059
0.25,0.445296,1.00205,2.69263,1.69402,3.69127,1.00067
0.26,0.461417,1.00222,2.6881,1.68955,3.68661,1.00075
0.27,0.476898,1.00241,2.68341,1.68498,3.68175,1.00079
0.28,0.492821,1.00257,2.67856,1.68029,3.67682,1.00083
0.29,0.508615,1.00278,2.67356,1.6754,3.67171,1.00092
0.3,0.524186,1.00299,2.66839,1.67036,3.66638,1.001
0.31,0.539688,1.00315,2.66308,1.66517,3.66096,1.00104
0.32,0.555159,1.00337,2.6576,1.65983,3.65537,1.00113
0.33,0.570449,1.00361,2.65198,1.6544,3.64955,1.00118
0.34,0.585635,1.00379,2.6462,1.64876,3.64365,1.00123
0.35,0.600721,1.00396,2.64027,1.64291,3.63764,1.00131
0.36,0.615667,1.00414,2.63418,1.63693,3.63138,1.00136
0.37,0.630447,1.00439,2.62796,1.63089,3.62501,1.00144
0.38,0.645186,1.00458,2.62158,1.62462,3.61851,1.00151
0.39,0.659307,1.00477,2.61506,1.61823,3.61184,1.00155
0.4,0.673646,1.00493,2.60839,1.61167,3.60512,1.00164
0.41,0.687794,1.00508,2.60159,1.60494,3.59818,1.00168
0.42,0.701902,1.0053,2.59464,1.59816,3.59111,1.00175
0.43,0.716011,1.00547,2.58755,1.59119,3.5839,1.00181
0.44,0.730096,1.00568,2.58032,1.58406,3.57651,1.00188
0.45,0.744059,1.00586,2.57295,1.57687,3.56905,1.00193
0.46,0.756342,1.00607,2.56545,1.56947,3.5614,1.00201
0.47,0.769506,1.00623,2.55782,1.56195,3.55368,1.00206
0.48,0.783087,1.00647,2.55006,1.55438,3.54575,1.00213
0.49,0.796569,1.00661,2.54217,1.54659,3.53781,1.00219
0.5,0.80988,1.00686,2.53413,1.53871,3.52959,1.00226
0.51,0.823076,1.00703,2.52597,1.53067,3.52134,1.00233
0.52,0.836295,1.00729,2.51768,1.52252,3.51285,1.00241
0.53,0.849113,1.00748,2.50925,1.51427,3.50432,1.00247
0.54,0.862094,1.00777,2.50069,1.50588,3.49554,1.00256
0.55,0.874871,1.00794,2.49201,1.49734,3.48677,1.00262
0.56,0.887721,1.00823,2.4832,1.48869,3.47776,1.00272
0.57,0.900312,1.00844,2.47426,1.4799,3.4687,1.0028
0.58,0.912877,1.00873,2.46519,1.47102,3.45942,1.00288
0.59,0.925244,1.00899,2.456,1.46198,3.45006,1.00297
0.6,0.937549,1.00923,2.44669,1.45288,3.4406,1.00304
0.61,0.949555,1.00952,2.43725,1.44356,3.43094,1.00316
0.62,0.961664,1.00978,2.4277,1.43425,3.42126,1.00322
0.63,0.973646,1.01007,2.41802,1.42472,3.41137,1.00332
0.64,0.985844,1.01036,2.40823,1.41514,3.4014,1.00342
0.65,0.99768,1.01056,2.39831,1.40536,3.39135,1.00348
0.66,1.00944,1.01088,2.38827,1.39551,3.38111,1.0036
0.67,1.02105,1.01114,2.37812,1.38557,3.37083,1.00369
0.68,1.03248,1.01139,2.36785,1.37547,3.36038,1.00376
0.69,1.044,1.01171,2.35747,1.3653,3.3498,1.00387
0.7,1.05508,1.01193,2.34698,1.35499,3.33923,1.00396
0.71,1.06566,1.01221,2.33637,1.34457,3.3284,1.00402
0.72,1.07674,1.0125,2.32566,1.33402,3.31749,1.00414
0.73,1.0878,1.01274,2.31484,1.32339,3.30657,1.00422
0.74,1.09869,1.01299,2.30391,1.31264,3.29545,1.00428
0.75,1.10938,1.01328,2.29287,1.30177,3.28421,1.00438
0.76,1.12014,1.01353,2.28172,1.29082,3.27295,1.00448
0.77,1.13082,1.01378,2.27047,1.27974,3.26153,1.00455
0.78,1.14208,1.01403,2.2591,1.26854,3.24997,1.00461
0.79,1.15264,1.01428,2.24763,1.25724,3.23837,1.00472
0.8,1.16303,1.01449,2.23605,1.24581,3.2267,1.0048
0.81,1.17329,1.01475,2.22437,1.23432,3.21482,1.00486
0.82,1.1836,1.01499,2.21259,1.22267,3.20287,1.00494
0.83,1.19369,1.01524,2.2007,1.21096,3.19086,1.00504
0.84,1.20379,1.01549,2.18872,1.19916,3.17875,1.00512
0.85,1.21377,1.01571,2.17663,1.18724,3.16651,1.00519
0.86,1.22346,1.01593,2.16444,1.17519,3.15417,1.00525
0.87,1.23325,1.01622,2.15216,1.16313,3.14175,1.00536
0.88,1.24289,1.01647,2.13978,1.15094,3.12925,1.00545
0.89,1.25183,1.01673,2.12731,1.13864,3.11661,1.00553
0.9,1.26104,1.01698,2.11474,1.12625,3.10389,1.0056
0.91,1.27018,1.01725,2.10209,1.11381,3.09106,1.00568
0.92,1.2794,1.01754,2.08934,1.10127,3.07816,1.00578
0.93,1.28846,1.0178,2.0765,1.08861,3.06519,1.00588
0.94,1.29745,1.01805,2.06358,1.07584,3.0521,1.00597
0.95,1.30643,1.01834,2.05056,1.06301,3.03887,1.00605
0.96,1.31523,1.01863,2.03745,1.05011,3.02556,1.00613
0.97,1.3237,1.01892,2.02426,1.03713,3.01219,1.00621
0.98,1.33244,1.0192,2.01098,1.02403,2.99876,1.00632
0.99,1.34079,1.01951,1.99761,1.01088,2.98522,1.00643
1,1.3499,1.01981,1.98416,0.997628,2.97158,1.00653
1.01,1.35827,1.02014,1.97062,0.98434,2.95784,1.00663
1.02,1.36637,1.02044,1.957,0.970927,2.94404,1.00672
1.03,1.37433,1.02074,1.94329,0.957447,2.93016,1.00682
1.04,1.38228,1.02102,1.92951,0.943884,2.91623,1.0069
1.05,1.38999,1.02132,1.91565,0.930239,2.90222,1.00701
1.06,1.39758,1.02164,1.90171,0.916549,2.88814,1.00713
1.07,1.40486,1.02196,1.8877,0.902772,2.87396,1.00724
1.08,1.41222,1.02229,1.87362,0.888928,2.85969,1.00734
1.09,1.41959,1.02259,1.85946,0.875009,2.84537,1.00744
1.1,1.42657,1.02291,1.84523,0.861011,2.83095,1.00753
1.11,1.43359,1.0232,1.83093,0.846949,2.81649,1.00762
1.12,1.44031,1.0235,1.81656,0.832821,2.80196,1.00771
1.13,1.44695,1.02379,1.80212,0.818613,2.78737,1.0078
1.14,1.45357,1.02407,1.78762,0.804346,2.77272,1.00788
1.15,1.45986,1.02437,1.77305,0.790032,2.75801,1.00797
1.16,1.46625,1.02466,1.75842,0.775634,2.74321,1.00805
1.17,1.47222,1.02494,1.74373,0.761165,2.72838,1.00814
1.18,1.47812,1.02522,1.72898,0.746626,2.7135,1.00824
1.19,1.48385,1.02551,1.71417,0.732051,2.69855,1.00833
1.2,1.48936,1.02581,1.69931,0.71743,2.68354,1.00843
1.21,1.49481,1.02611,1.68439,0.702747,2.66848,1.00852
1.22,1.49993,1.02641,1.66941,0.688016,2.65334,1.00862
1.23,1.50504,1.02672,1.65439,0.673248,2.63816,1.00871
1.24,1.50951,1.02704,1.63931,0.65844,2.62293,1.00881
1.25,1.51399,1.02736,1.6242,0.643591,2.60766,1.00891
1.26,1.51834,1.02769,1.60904,0.628709,2.59235,1.00901
1.27,1.52245,1.02803,1.59383,0.613798,2.57698,1.00911
1.28,1.52638,1.02839,1.57859,0.598868,2.56156,1.00921
1.29,1.52995,1.02875,1.56331,0.583913,2.54612,1.00931
1.3,1.53354,1.02912,1.54799,0.568926,2.53063,1.00942
1.31,1.53675,1.0295,1.53264,0.55392,2.51511,1.00953
1.32,1.5397,1.02991,1.51726,0.538902,2.49954,1.00964
1.33,1.54246,1.03032,1.50185,0.523854,2.48393,1.00975
1.34,1.54472,1.03073,1.48641,0.508798,2.46831,1.00987
1.35,1.54682,1.03116,1.47095,0.493727,2.45266,1.00999
1.36,1.54853,1.03161,1.45548,0.47866,2.43698,1.01011
1.37,1.54973,1.03205,1.43999,0.463589,2.42131,1.01023
1.38,1.55071,1.03251,1.42449,0.448523,2.40562,1.01036
1.39,1.55106,1.03299,1.40898,0.433472,2.38991,1.01049
1.4,1.55143,1.03349,1.39347,0.418448,2.3742,1.01062
1.41,1.55142,1.03399,1.37795,0.403431,2.35849,1.01076
1.42,1.55099,1.03451,1.36244,0.388444,2.34278,1.0109
1.43,1.55016,1.03507,1.34693,0.373498,2.32706,1.01103
1.44,1.5487,1.03564,1.33144,0.358607,2.31135,1.01117
1.45,1.54694,1.03624,1.31596,0.343757,2.29565,1.01132
1.46,1.54469,1.03685,1.3005,0.328952,2.27999,1.01147
1.47,1.54199,1.03751,1.28507,0.314218,2.26432,1.01162
1.48,1.53879,1.03819,1.26967,0.299565,2.24869,1.01178
1.49,1.53492,1.03892,1.2543,0.284984,2.23307,1.01195
1.5,1.53044,1.03966,1.23897,0.270482,2.21752,1.01212
1.51,1.52528,1.04047,1.22369,0.256111,2.20197,1.0123
1.52,1.5194,1.04131,1.20847,0.241846,2.1865,1.01249
1.53,1.51269,1.04222,1.19331,0.227731,2.17105,1.01269
1.54,1.50542,1.04318,1.17822,0.213753,2.15568,1.01289
1.55,1.4973,1.04424,1.1632,0.199962,2.14034,1.01311
1.56,1.48827,1.04536,1.14828,0.18636,2.1251,1.01333
1.57,1.47818,1.04657,1.13344,0.172958,2.1099,1.01358
1.58,1.46726,1.04787,1.11872,0.1598,2.09483,1.01383
1.59,1.45528,1.04931,1.1041,0.146935,2.07982,1.0141
1.6,1.44216,1.05088,1.08962,0.134386,2.06493,1.01438
1.61,1.42786,1.05259,1.07527,0.12216,2.05014,1.01469
1.62,1.41211,1.05444,1.06107,0.11028,2.03549,1.01501
1.63,1.39514,1.05654,1.04703,0.098919,2.02096,1.01536
1.64,1.37662,1.05886,1.03317,0.0880261,2.00657,1.01574
1.65,1.35643,1.06143,1.0195,0.0776987,1.99233,1.01613
1.66,1.33439,1.06439,1.00605,0.0681073,1.97824,1.01656
1.67,1.31036,1.06769,0.992826,0.0591575,1.96431,1.01705
1.68,1.28413,1.07147,0.979853,0.0511518,1.95058,1.01759
1.69,1.25571,1.0757,0.967153,0.0440396,1.93705,1.01816
1.7,1.22483,1.08061,0.95475,0.0381353,1.92373,1.0188
1.71,1.19136,1.08604,0.942668,0.0332102,1.91067,1.0195
1.72,1.15536,1.09199,0.930934,0.029235,1.89788,1.02027
1.73,1.11672,1.09841,0.919572,0.0260789,1.88533,1.02111
1.74,1.07506,1.1053,0.908611,0.023639,1.87301,1.02206
1.75,1.03013,1.11251,0.898083,0.0217537,1.86102,1.0231
1.76,0.982145,1.11997,0.888019,0.0203707,1.84938,1.02422
1.77,0.931105,1.12744,0.878449,0.0191261,1.83815,1.02542
1.78,0.877087,1.13508,0.869406,0.0179732,1.82716,1.02678
1.79,0.820011,1.14285,0.860916,0.0169292,1.81658,1.02837
1.8,0.760347,1.15054,0.853011,0.0159496,1.80653,1.03007
1.81,0.698032,1.15814,0.845716,0.0150548,1.79688,1.03181
1.82,0.633909,1.1656,0.839052,0.014224,1.78765,1.03356
1.83,0.567594,1.1726,0.83304,0.0134697,1.77919,1.03525
1.84,0.500006,1.17914,0.827699,0.0127334,1.77139,1.03685
1.85,0.431291,1.18534,0.823039,0.0120609,1.76417,1.03842
1.86,0.361823,1.19116,0.81907,0.0114039,1.75731,1.03982
1.87,0.292341,1.19637,0.815797,0.0108027,1.75111,1.04103
1.88,0.223005,1.20091,0.813218,0.010212,1.74586,1.04218
1.89,0.154318,1.20436,0.81133,0.00961737,1.74172,1.04303
1.9,0.0866177,1.20671,0.810123,0.00905728,1.73876,1.04363
1.91,0.0201494,1.20756,0.809588,0.00852197,1.73734,1.04383
1.92,-0.044979,1.20734,0.80971,0.00802627,1.73706,1.04377
1.93,-0.10873,1.20617,0.810478,0.00755,1.7378,1.04349
1.94,-0.170697,1.20377,0.811874,0.00708151,1.73991,1.04296
1.95,-0.2305,1.20044,0.813879,0.00660799,1.74292,1.04216
1.96,-0.288353,1.19603,0.816473,0.00614728,1.74702,1.04107
1.97,-0.344282,1.1907,0.819635,0.00568473,1.752,1.03967
1.98,-0.397586,1.18415,0.823344,0.00522052,1.75837,1.03799
1.99,-0.448204,1.17677,0.827572,0.00476913,1.76578,1.03615
2,-0.495993,1.16896,0.832293,0.00432648,1.77362,1.03412
2.01,-0.540531,1.16072,0.837476,0.00391582,1.78216,1.03202
2.02,-0.581705,1.15041,0.843088,0.000831062,1.79129,1.02988
2.03,-0.618801,1.14132,0.849092,1.17195e-05,1.80088,1.02768
2.04,-0.651878,1.13287,0.855447,0.000302119,1.81074,1.02549
2.05,-0.680464,1.12446,0.862111,0.000933827,1.82096,1.02327
2.06,-0.704671,1.11562,0.869038,0.00100271,1.83148,1.02106
2.07,-0.724692,1.10697,0.876187,0.000994816,1.84201,1.01897
2.08,-0.740672,1.09843,0.883516,0.00103803,1.85262,1.01692
2.09,-0.752867,1.09029,0.890985,0.0013954,1.86312,1.01491
2.1,-0.761502,1.08217,0.898559,0.00137835,1.87349,1.01297
2.11,-0.766378,1.07451,0.9062,0.00168246,1.88375,1.01115
2.12,-0.767656,1.06715,0.913872,0.00167764,1.8938,1.00959
2.13,-0.765875,1.05987,0.921541,0.00150436,1.90397,1.00819
2.14,-0.760962,1.05326,0.929176,0.00181313,1.91395,1.00699
2.15,-0.753023,1.04682,0.936748,0.00173377,1.92349,1.00587
2.16,-0.742305,1.04049,0.944226,0.00139823,1.93298,1.0049
2.17,-0.729152,1.03459,0.951584,0.00152989,1.94244,1.00403
2.18,-0.713709,1.02884,0.9588,0.00168867,1.95184,1.0032
2.19,-0.696251,1.02313,0.965851,0.00127051,1.9609,1.00247
2.2,-0.676958,1.01804,0.972718,0.00118807,1.96918,1.00174
2.21,-0.655926,1.01341,0.979383,0.00108597,1.97678,1.0011
2.22,-0.633344,1.00925,0.985831,0.00120462,1.98381,1.00048
2.23,-0.609483,1.00529,0.992046,0.0013578,1.99068,0.99992
2.24,-0.58448,1.00142,0.998016,0.00104451,1.99695,0.999372
2.25,-0.558602,0.997625,1.00373,0.000792164,2.00319,0.998823
2.26,-0.53188,0.994121,1.00919,0.000628705,2.00915,0.998358
2.27,-0.50446,0.991065,1.01437,0.00112983,2.01502,0.997948
2.28,-0.476744,0.987859,1.01928,0.000766406,2.02056,0.997636
2.29,-0.448612,0.985056,1.0239,0.000940595,2.02589,0.997343
2.3,-0.420108,0.982167,1.02825,0.000665314,2.03105,0.997087
2.31,-0.391695,0.97969,1.03231,0.000832698,2.03584,0.996837
2.32,-0.363244,0.977215,1.03608,0.000669011,2.04035,0.996602
2.33,-0.334699,0.976066,1.03957,0.00288567,2.04452,0.996386
2.34,-0.3066,0.976059,1.04278,0.00723448,2.04845,0.996175
2.35,-0.27883,0.976383,1.0457,0.0116631,2.05181,0.995983
2.36,-0.25147,0.977546,1.04836,0.0175122,2.0549,0.995822
2.37,-0.224606,0.979304,1.05074,0.0240978,2.05764,0.995728
2.38,-0.198646,0.981205,1.05285,0.0304604,2.06003,0.995712
2.39,-0.173619,0.983151,1.05471,0.0363059,2.06192,0.995744
2.4,-0.149686,0.985138,1.05633,0.041697,2.06344,0.995848
2.41,-0.127218,0.987022,1.05771,0.0465092,2.06466,0.995978
2.42,-0.106138,0.988818,1.05888,0.0505569,2.06533,0.996121
2.43,-0.0863605,0.990637,1.05984,0.0541806,2.06565,0.996316
2.44,-0.0678025,0.992592,1.06061,0.0573619,2.06563,0.996694
2.45,-0.0503788,0.994789,1.0612,0.0601627,2.06532,0.997353
2.46,-0.0339452,0.997279,1.06162,0.0626796,2.06469,0.998282
2.47,-0.0185462,0.999968,1.06188,0.0648266,2.06368,0.999394
2.48,-0.00416742,1.00272,1.062,0.066679,2.06244,1.00059
2.49,0.00948388,1.00538,1.06197,0.0683584,2.06119,1.00178
