time,velocity,ratio,centerX,Xmax,Xmin,Ymax
0,0,1,7.25,6.25,8.25,1
0.01,0.0197844,0.999988,7.24991,6.24989,8.24992,1.00001
0.02,0.0394091,0.999999,7.24962,6.2496,8.24963,1.00001
0.03,0.0588953,1.00001,7.24914,6.24912,8.24913,1.00002
0.04,0.0782177,1.00003,7.24847,6.24845,8.24844,1.00002
0.05,0.0973902,1.00004,7.24761,6.24759,8.24755,1.00002
0.06,0.116413,1.00006,7.24655,6.24653,8.24647,1.00003
0.07,0.135298,1.00007,7.24531,6.24529,8.24519,1.00003
0.08,0.154033,1.00009,7.24388,6.24386,8.24373,1.00002
0.09,0.172609,1.00011,7.24226,6.24226,8.24207,1.00001
0.1,0.191079,1.00016,7.24045,6.24048,8.24024,1.00004
0.11,0.209401,1.00022,7.23846,6.23853,8.23821,1.00006
0.12,0.22758,1.00028,7.23629,6.2364,8.23601,1.00009
0.13,0.245605,1.00033,7.23394,6.23409,8.23365,1.00011
0.14,0.263482,1.00039,7.23141,6.23162,8.23111,1.00013
0.15,0.281233,1.00046,7.2287,6.22898,8.22838,1.00016
0.16,0.29884,1.00056,7.22581,6.22618,8.22544,1.00019
0.17,0.31631,1.00073,7.22275,6.22322,8.22229,1.00026
0.18,0.333653,1.00093,7.21951,6.22012,8.21893,1.00033
0.19,0.350866,1.00114,7.2161,6.21686,8.21539,1.0004
0.2,0.367914,1.00136,7.21252,6.21344,8.21167,1.00047
0.21,0.384814,1.00165,7.20877,6.20987,8.2077,1.00056
0.22,0.401564,1.00203,7.20485,6.20617,8.2035,1.00069
0.23,0.418157,1.00242,7.20076,6.20233,8.19913,1.00081
0.24,0.43461,1.00282,7.19651,6.19835,8.1946,1.00093
0.25,0.450887,1.0033,7.1921,6.19422,8.18981,1.00108
0.26,0.467019,1.00386,7.18752,6.18995,8.18479,1.00127
0.27,0.482984,1.00444,7.18278,6.18555,8.17961,1.00145
0.28,0.49877,1.00507,7.17788,6.18104,8.1742,1.00164
0.29,0.514345,1.00585,7.17283,6.1764,8.16852,1.00189
0.3,0.529787,1.00663,7.16762,6.17164,8.16273,1.00214
0.31,0.545052,1.00744,7.16226,6.16677,8.15676,1.0024
0.32,0.560155,1.00839,7.15674,6.16178,8.15054,1.00272
0.33,0.575068,1.00938,7.15108,6.15667,8.14411,1.00304
0.34,0.589766,1.01047,7.14526,6.15146,8.13743,1.00338
0.35,0.604223,1.0117,7.1393,6.14615,8.13049,1.00377
0.36,0.618319,1.01298,7.1332,6.14076,8.12334,1.00416
0.37,0.632386,1.01441,7.12696,6.13526,8.11592,1.0046
0.38,0.646267,1.01593,7.12057,6.12963,8.10825,1.00507
0.39,0.659924,1.0175,7.11405,6.12389,8.10037,1.00554
0.4,0.673347,1.01923,7.1074,6.11808,8.09228,1.00609
0.41,0.686331,1.02102,7.10061,6.1122,8.08399,1.00662
0.42,0.699251,1.02294,7.09369,6.10623,8.07546,1.0072
0.43,0.711927,1.025,7.08664,6.10017,8.06666,1.00782
0.44,0.724308,1.02717,7.07947,6.09404,8.05757,1.00844
0.45,0.736491,1.02953,7.07218,6.08782,8.0482,1.00914
0.46,0.748378,1.03198,7.06476,6.08152,8.03858,1.00982
0.47,0.760015,1.0346,7.05723,6.07516,8.0287,1.01057
0.48,0.771393,1.03732,7.04958,6.0687,8.01857,1.01132
0.49,0.782467,1.04019,7.04182,6.06215,8.00819,1.01212
0.5,0.793262,1.0432,7.03395,6.05554,7.99755,1.01295
0.51,0.80375,1.04637,7.02597,6.04888,7.9866,1.01379
0.52,0.813928,1.04973,7.01789,6.04215,7.97539,1.0147
0.53,0.823863,1.0532,7.00971,6.03535,7.96392,1.01558
0.54,0.833444,1.05686,7.00143,6.02849,7.9522,1.01655
0.55,0.842812,1.06064,6.99306,6.02157,7.9402,1.01749
0.56,0.851904,1.06466,6.98459,6.0146,7.92793,1.01852
0.57,0.860582,1.06882,6.97604,6.00759,7.91536,1.01953
0.58,0.869043,1.07317,6.96739,6.00048,7.90253,1.02062
0.59,0.87718,1.07767,6.95867,5.99331,7.88941,1.02169
0.6,0.884949,1.08242,6.94987,5.98614,7.87603,1.02283
0.61,0.892435,1.08734,6.94099,5.97893,7.86236,1.02396
0.62,0.89949,1.09246,6.93203,5.97167,7.84846,1.02515
0.63,0.906449,1.09775,6.92301,5.96439,7.8343,1.02634
0.64,0.913008,1.10324,6.91392,5.95706,7.8199,1.02757
0.65,0.919335,1.10893,6.90476,5.9497,7.80521,1.02882
0.66,0.92528,1.11481,6.89555,5.94228,7.79028,1.03009
0.67,0.931055,1.12086,6.88627,5.93481,7.77512,1.03137
0.68,0.936425,1.12709,6.87694,5.92731,7.75976,1.03267
0.69,0.941534,1.13355,6.86755,5.91979,7.74415,1.034
0.7,0.946412,1.14019,6.85812,5.91223,7.72832,1.03535
0.71,0.950952,1.14705,6.84864,5.90465,7.71228,1.03672
0.72,0.95521,1.15407,6.83911,5.89703,7.69606,1.0381
0.73,0.959217,1.16131,6.82955,5.8894,7.67964,1.03951
0.74,0.962976,1.16873,6.81994,5.88173,7.66305,1.04094
0.75,0.966587,1.17631,6.8103,5.87401,7.6463,1.04238
0.76,0.969859,1.18404,6.80062,5.86625,7.62942,1.04383
0.77,0.972926,1.192,6.79091,5.85851,7.61237,1.0453
0.78,0.975714,1.2001,6.78117,5.85074,7.59523,1.04678
0.79,0.978362,1.20836,6.77141,5.84296,7.57798,1.04826
0.8,0.98083,1.21677,6.76162,5.83516,7.56065,1.04976
0.81,0.983049,1.2252,6.7518,5.82733,7.54344,1.05129
0.82,0.985118,1.23353,6.74197,5.81948,7.52648,1.05282
0.83,0.986849,1.24176,6.73211,5.81159,7.50979,1.05437
0.84,0.988553,1.24985,6.72224,5.80367,7.49336,1.05594
0.85,0.990132,1.25788,6.71235,5.79575,7.47718,1.05752
0.86,0.991561,1.26578,6.70245,5.78782,7.46125,1.05909
0.87,0.992873,1.27359,6.69253,5.77987,7.44555,1.0607
0.88,0.993997,1.28129,6.6826,5.77189,7.43005,1.06229
0.89,0.995041,1.2889,6.67266,5.76391,7.41476,1.06389
0.9,0.995985,1.29641,6.66271,5.75591,7.39967,1.06549
0.91,0.996725,1.30382,6.65275,5.74785,7.38475,1.06711
0.92,0.99755,1.31115,6.64278,5.73979,7.37002,1.06873
0.93,0.998128,1.31845,6.63281,5.73175,7.35543,1.07037
0.94,0.998663,1.32567,6.62283,5.72369,7.34099,1.07201
0.95,0.999153,1.33285,6.61284,5.71563,7.32671,1.07366
0.96,0.999527,1.33993,6.60285,5.70755,7.31258,1.07531
0.97,0.99979,1.34697,6.59286,5.69947,7.29857,1.07697
0.98,1.00002,1.3539,6.58286,5.69136,7.2847,1.07861
0.99,1.0002,1.36078,6.57287,5.68322,7.27093,1.08027
1,1.00032,1.36763,6.56287,5.67507,7.25727,1.08193
1.01,1.00041,1.37441,6.55287,5.66693,7.24376,1.08361
1.02,1.0004,1.38116,6.54287,5.65877,7.23033,1.08528
1.03,1.00044,1.38789,6.53287,5.65061,7.21697,1.08697
1.04,1.00034,1.39451,6.52287,5.64243,7.20378,1.08865
1.05,1.00018,1.40115,6.51288,5.63425,7.19061,1.09034
1.06,1.00006,1.4077,6.50288,5.62603,7.17755,1.09203
1.07,0.99989,1.41422,6.49289,5.61779,7.16455,1.09373
1.08,0.999726,1.4207,6.48289,5.60957,7.15164,1.0954
1.09,0.999593,1.42713,6.4729,5.60135,7.13882,1.09709
1.1,0.999409,1.43359,6.46291,5.59311,7.12604,1.0988
1.11,0.999185,1.43997,6.45292,5.58487,7.11337,1.1005
1.12,0.998863,1.44639,6.44294,5.57662,7.1007,1.10221
1.13,0.9986,1.4527,6.43295,5.56835,7.08815,1.10391
1.14,0.998343,1.45901,6.42297,5.56005,7.07563,1.10562
1.15,0.998157,1.46527,6.41299,5.55175,7.06319,1.10733
1.16,0.99789,1.47154,6.40302,5.54345,7.05078,1.10905
1.17,0.99757,1.47774,6.39305,5.53513,7.03842,1.11074
1.18,0.997259,1.48394,6.38308,5.52681,7.02613,1.11245
1.19,0.996978,1.49016,6.37311,5.51848,7.01384,1.11416
1.2,0.996604,1.49631,6.36315,5.51015,7.00168,1.1159
1.21,0.996275,1.50249,6.35319,5.50179,6.98947,1.11762
1.22,0.995896,1.50862,6.34323,5.49339,6.97735,1.11936
1.23,0.995566,1.51476,6.33328,5.48503,6.96525,1.12109
1.24,0.995271,1.52092,6.32333,5.47667,6.95319,1.12284
1.25,0.994976,1.52701,6.31339,5.46831,6.94121,1.12457
1.26,0.994657,1.53317,6.30344,5.45995,6.92919,1.1263
1.27,0.994287,1.53928,6.2935,5.45158,6.91722,1.12802
1.28,0.99393,1.54537,6.28357,5.44319,6.90531,1.12977
1.29,0.993584,1.55146,6.27363,5.43478,6.8934,1.13149
1.3,0.993371,1.55753,6.26371,5.42636,6.88155,1.13325
1.31,0.993032,1.56362,6.25378,5.41795,6.86969,1.13499
1.32,0.992699,1.56978,6.24385,5.40953,6.8578,1.13674
1.33,0.992427,1.57581,6.23393,5.4011,6.84604,1.13847
1.34,0.99205,1.58186,6.22402,5.39267,6.83431,1.14024
1.35,0.991857,1.588,6.2141,5.38424,6.82247,1.14196
1.36,0.991546,1.59406,6.20419,5.37577,6.81074,1.14371
1.37,0.991236,1.60009,6.19428,5.36729,6.79902,1.14545
1.38,0.990918,1.60624,6.18438,5.35882,6.78728,1.14722
1.39,0.990666,1.61232,6.17447,5.35036,6.7756,1.14897
1.4,0.990358,1.61845,6.16457,5.3419,6.76393,1.15075
1.41,0.990088,1.62458,6.15467,5.33343,6.75225,1.15249
1.42,0.989721,1.63076,6.14478,5.32496,6.74058,1.15427
1.43,0.989418,1.63682,6.13489,5.31646,6.72898,1.15602
1.44,0.989162,1.64293,6.125,5.30794,6.71736,1.15778
1.45,0.988928,1.64905,6.11512,5.29942,6.70572,1.15953
1.46,0.988694,1.65517,6.10524,5.29091,6.69416,1.16131
1.47,0.988435,1.66129,6.09536,5.28238,6.68258,1.16306
1.48,0.988165,1.66752,6.08548,5.27386,6.67097,1.16485
1.49,0.988027,1.67371,6.0756,5.26533,6.65937,1.16661
1.5,0.987732,1.6798,6.06573,5.25679,6.64791,1.1684
1.51,0.987499,1.68592,6.05586,5.2482,6.63636,1.17016
1.52,0.987288,1.69213,6.04599,5.23962,6.6248,1.17195
1.53,0.987066,1.69833,6.03612,5.23107,6.61324,1.17369
1.54,0.98685,1.7045,6.02626,5.2225,6.60178,1.17549
1.55,0.986611,1.71073,6.0164,5.21395,6.59027,1.17726
1.56,0.986421,1.71705,6.00653,5.20539,6.57876,1.17907
1.57,0.986175,1.72335,5.99668,5.19682,6.56724,1.18085
1.58,0.985945,1.72961,5.98682,5.18823,6.55579,1.18268
1.59,0.985715,1.7359,5.97697,5.17963,6.5443,1.18447
1.6,0.985482,1.74226,5.96712,5.17103,6.53282,1.18629
1.61,0.985304,1.74858,5.95727,5.16244,6.52134,1.18807
1.62,0.984973,1.75496,5.94742,5.15384,6.50987,1.18989
1.63,0.984797,1.76129,5.93758,5.14523,6.49841,1.19167
1.64,0.98457,1.7677,5.92774,5.13663,6.48698,1.19351
1.65,0.984443,1.77407,5.9179,5.12801,6.47554,1.1953
1.66,0.984244,1.78053,5.90806,5.11935,6.46405,1.19714
1.67,0.984113,1.78696,5.89822,5.11071,6.45259,1.19894
1.68,0.983908,1.79341,5.88839,5.10209,6.44119,1.20079
1.69,0.983702,1.79985,5.87855,5.09346,6.42978,1.20259
1.7,0.983479,1.80642,5.86872,5.08483,6.41831,1.20441
1.71,0.98329,1.81294,5.85889,5.07619,6.40686,1.20621
1.72,0.98305,1.81954,5.84907,5.06754,6.39542,1.20807
1.73,0.982822,1.826,5.83924,5.05886,6.38402,1.20987
1.74,0.982625,1.83261,5.82942,5.05018,6.3726,1.21175
1.75,0.982411,1.83912,5.8196,5.04152,6.36121,1.21354
1.76,0.982261,1.84576,5.80978,5.03284,6.34982,1.21542
1.77,0.982027,1.85235,5.79997,5.02416,6.33838,1.2172
1.78,0.981877,1.85907,5.79015,5.01549,6.32697,1.21907
1.79,0.981624,1.86564,5.78034,5.00681,6.31558,1.22084
1.8,0.981347,1.87221,5.77053,4.99809,6.30425,1.22271
1.81,0.981099,1.87883,5.76072,4.98938,6.29287,1.22451
1.82,0.980844,1.88553,5.75092,4.98069,6.28151,1.22637
1.83,0.980565,1.89221,5.74111,4.972,6.27016,1.22819
1.84,0.980361,1.89894,5.73132,4.96331,6.25879,1.23002
1.85,0.980116,1.90572,5.72152,4.95462,6.24742,1.23185
1.86,0.97991,1.91239,5.71172,4.94593,6.23607,1.23363
1.87,0.97972,1.91912,5.70193,4.93721,6.22472,1.23545
1.88,0.979624,1.92568,5.69214,4.92848,6.21341,1.23719
1.89,0.979398,1.93247,5.68235,4.91976,6.20211,1.23905
1.9,0.979163,1.93913,5.67256,4.91103,6.19083,1.24085
1.91,0.979011,1.9459,5.66278,4.90231,6.17952,1.24266
1.92,0.978728,1.9527,5.65299,4.89358,6.16822,1.24449
1.93,0.978476,1.95936,5.64321,4.88486,6.15694,1.24623
1.94,0.97817,1.96617,5.63343,4.87611,6.14566,1.24808
1.95,0.977925,1.97282,5.62366,4.86734,6.13438,1.24983
1.96,0.977663,1.9795,5.61388,4.8586,6.12314,1.25158
1.97,0.977388,1.98621,5.60411,4.84985,6.1119,1.25334
1.98,0.977156,1.99282,5.59435,4.8411,6.10065,1.25503
1.99,0.97687,1.99964,5.58458,4.83236,6.08942,1.25683
2,0.976546,2.00631,5.57482,4.82361,6.07819,1.25854
2.01,0.97624,2.01297,5.56506,4.81484,6.06697,1.26025
2.02,0.975938,2.01962,5.5553,4.80606,6.05577,1.26197
2.03,0.975646,2.02611,5.54555,4.79728,6.04457,1.26357
2.04,0.975377,2.03272,5.5358,4.78851,6.03341,1.26527
2.05,0.975131,2.03922,5.52605,4.77973,6.02226,1.26689
2.06,0.974888,2.04558,5.51631,4.77094,6.01113,1.26845
2.07,0.974618,2.0522,5.50656,4.76216,6.00001,1.27016
2.08,0.974433,2.05865,5.49682,4.75336,5.9889,1.27178
2.09,0.974029,2.06496,5.48709,4.74453,5.9778,1.27333
2.1,0.973815,2.07147,5.47735,4.73572,5.96672,1.275
2.11,0.973519,2.07782,5.46762,4.72693,5.95566,1.27655
2.12,0.973213,2.0841,5.45789,4.71813,5.94461,1.27806
2.13,0.972864,2.09051,5.44816,4.70934,5.93358,1.27965
2.14,0.972643,2.0967,5.43844,4.70055,5.92258,1.28112
2.15,0.972297,2.10278,5.42872,4.69174,5.91159,1.28254
2.16,0.972049,2.10896,5.41901,4.68291,5.90064,1.28407
2.17,0.971752,2.11503,5.40929,4.67409,5.8897,1.28552
2.18,0.971414,2.12101,5.39958,4.66527,5.87877,1.28692
2.19,0.971156,2.12722,5.38987,4.65645,5.86785,1.28846
2.2,0.970869,2.13325,5.38016,4.64763,5.85695,1.28988
2.21,0.970559,2.13906,5.37046,4.63882,5.84606,1.29119
2.22,0.970246,2.14514,5.36076,4.62999,5.8352,1.29268
2.23,0.96998,2.15094,5.35107,4.62113,5.82436,1.29403
2.24,0.969715,2.15654,5.34137,4.61229,5.81353,1.29526
2.25,0.969411,2.16237,5.33168,4.60346,5.80273,1.29663
2.26,0.969064,2.16801,5.32199,4.59462,5.79195,1.29792
2.27,0.968898,2.17349,5.3123,4.58578,5.78119,1.2991
2.28,0.968582,2.17908,5.30262,4.57695,5.77046,1.30038
2.29,0.968339,2.18468,5.29295,4.5681,5.75976,1.3017
2.3,0.96808,2.19007,5.28327,4.55923,5.74907,1.30291
2.31,0.967795,2.19532,5.27359,4.55037,5.7384,1.30406
2.32,0.967521,2.20087,5.26392,4.54151,5.72774,1.30537
2.33,0.967256,2.20616,5.25425,4.53265,5.7171,1.30655
2.34,0.966934,2.21123,5.24458,4.52379,5.70649,1.30761
2.35,0.966623,2.2165,5.23492,4.51493,5.69591,1.30882
2.36,0.966439,2.2216,5.22526,4.50606,5.68536,1.30996
2.37,0.966084,2.22638,5.2156,4.49716,5.67482,1.31096
2.38,0.965704,2.23126,5.20595,4.48827,5.66431,1.31202
2.39,0.965408,2.23616,5.19629,4.47941,5.65382,1.31309
2.4,0.965132,2.24083,5.18664,4.47054,5.64338,1.31407
2.41,0.964972,2.24534,5.177,4.46167,5.63296,1.31497
2.42,0.964703,2.2502,5.16736,4.4528,5.62256,1.31609
2.43,0.964441,2.25487,5.15771,4.44393,5.61217,1.31712
2.44,0.964162,2.25928,5.14808,4.43504,5.60181,1.31804
2.45,0.963891,2.26369,5.13844,4.42614,5.59149,1.319
2.46,0.963646,2.26824,5.1288,4.41725,5.58119,1.32004
2.47,0.963464,2.27253,5.11918,4.40836,5.57089,1.32095
2.48,0.963157,2.27656,5.10954,4.39947,5.56064,1.32174
2.49,0.962898,2.28094,5.09992,4.39058,5.55042,1.32276
2.5,0.962609,2.28507,5.0903,4.38169,5.54021,1.32365
2.51,0.962333,2.28885,5.08067,4.37276,5.53002,1.3244
2.52,0.962082,2.29279,5.07105,4.36384,5.51988,1.32528
2.53,0.961978,2.29672,5.06144,4.35494,5.50975,1.32614
2.54,0.961725,2.30039,5.05182,4.34603,5.49964,1.32687
2.55,0.961495,2.30392,5.04221,4.33714,5.48958,1.32757
2.56,0.961229,2.30766,5.03261,4.32824,5.47954,1.32841
2.57,0.961026,2.31114,5.02299,4.31933,5.46951,1.32911
2.58,0.960833,2.31432,5.01339,4.3104,5.45953,1.32972
2.59,0.960557,2.31776,5.00379,4.30147,5.44956,1.3305
2.6,0.960413,2.32117,4.99418,4.29254,5.43961,1.33127
2.61,0.960327,2.32432,4.98459,4.28362,5.4297,1.33193
2.62,0.960146,2.32731,4.97499,4.27469,5.4198,1.33252
2.63,0.959955,2.33064,4.96539,4.26576,5.40993,1.33333
2.64,0.959695,2.33373,4.9558,4.25682,5.40008,1.33403
2.65,0.959494,2.33647,4.9462,4.24786,5.39026,1.33459
2.66,0.959295,2.33934,4.93662,4.23889,5.38046,1.33526
2.67,0.959113,2.34232,4.92703,4.22995,5.37067,1.33596
2.68,0.958928,2.34501,4.91744,4.22101,5.36092,1.33654
2.69,0.958896,2.34756,4.90786,4.21208,5.35117,1.33704
2.7,0.958712,2.35043,4.89827,4.20315,5.34146,1.33776
2.71,0.95851,2.35298,4.88869,4.19421,5.33176,1.33832
2.72,0.9583,2.35523,4.87911,4.18524,5.32208,1.33876
2.73,0.958126,2.35779,4.86953,4.17628,5.31243,1.3394
2.74,0.957968,2.36024,4.85996,4.16733,5.30278,1.33997
2.75,0.957831,2.36236,4.85038,4.15838,5.29317,1.34039
2.76,0.957667,2.36464,4.8408,4.14943,5.28356,1.3409
2.77,0.957577,2.36694,4.83124,4.14048,5.27398,1.34146
2.78,0.957468,2.36898,4.82166,4.13152,5.2644,1.34188
2.79,0.957403,2.3708,4.81209,4.12254,5.25486,1.34225
2.8,0.957335,2.37297,4.80252,4.11355,5.24532,1.34282
2.81,0.957189,2.37486,4.79295,4.10459,5.2358,1.34324
2.82,0.956987,2.37652,4.78339,4.09562,5.2263,1.34353
2.83,0.956809,2.37855,4.77382,4.08666,5.21681,1.34406
2.84,0.9567,2.38039,4.76426,4.0777,5.20734,1.34449
2.85,0.956672,2.38195,4.7547,4.06873,5.19788,1.34479
2.86,0.956594,2.38364,4.74513,4.05974,5.18843,1.3452
2.87,0.956586,2.38539,4.73557,4.05075,5.179,1.34566
2.88,0.956535,2.38697,4.72601,4.04177,5.16957,1.34601
2.89,0.956485,2.3883,4.71644,4.03279,5.16016,1.34626
2.9,0.956422,2.39012,4.70689,4.0238,5.15076,1.34678
2.91,0.956368,2.39167,4.69732,4.01482,5.14137,1.34717
2.92,0.956316,2.393,4.68777,4.00583,5.13199,1.34745
2.93,0.956261,2.39447,4.67821,3.99682,5.12262,1.34786
2.94,0.95622,2.39599,4.66865,3.98781,5.11326,1.34829
2.95,0.956178,2.3973,4.65909,3.97882,5.10391,1.34858
2.96,0.956078,2.39862,4.64953,3.96983,5.09456,1.3489
2.97,0.956043,2.4002,4.63998,3.96085,5.08522,1.34936
2.98,0.956001,2.40152,4.63042,3.95187,5.07589,1.34968
2.99,0.955968,2.40262,4.62086,3.94288,5.06656,1.34989
3,0.955946,2.40415,4.61131,3.93387,5.05724,1.35038
3.01,0.955918,2.4054,4.60175,3.92487,5.04793,1.3507
3.02,0.955963,2.40644,4.5922,3.91587,5.03861,1.3509
3.03,0.955959,2.40785,4.58264,3.90687,5.02931,1.35133
3.04,0.955773,2.40912,4.57308,3.89787,5.02001,1.35168
3.05,0.955743,2.41013,4.56353,3.88888,5.01071,1.35188
3.06,0.955718,2.41141,4.55397,3.87988,5.00142,1.35225
3.07,0.955661,2.41259,4.54443,3.87085,4.99213,1.3526
3.08,0.955666,2.41356,4.53487,3.86183,4.98283,1.35281
3.09,0.955669,2.41475,4.52532,3.85283,4.97354,1.35312
3.1,0.95566,2.41601,4.51577,3.84383,4.96425,1.35347
3.11,0.955627,2.41699,4.50621,3.83483,4.95496,1.35367
3.12,0.955763,2.41811,4.49666,3.82583,4.94567,1.35395
3.13,0.955741,2.41934,4.4871,3.81682,4.93638,1.3543
3.14,0.955809,2.42025,4.47755,3.80778,4.92709,1.3545
3.15,0.955904,2.42125,4.468,3.79876,4.9178,1.35474
3.16,0.956012,2.42248,4.45844,3.78974,4.9085,1.35509
3.17,0.956004,2.42341,4.44889,3.78072,4.89921,1.35528
3.18,0.956074,2.42438,4.43933,3.77169,4.88991,1.35549
3.19,0.956112,2.42564,4.42977,3.76267,4.8806,1.35585
3.2,0.956104,2.42657,4.42021,3.75364,4.8713,1.35604
3.21,0.956102,2.42743,4.41065,3.74458,4.86199,1.35622
3.22,0.95621,2.42868,4.4011,3.73554,4.85267,1.35658
3.23,0.956217,2.42967,4.39154,3.72652,4.84335,1.35676
3.24,0.956251,2.43063,4.38198,3.7175,4.83402,1.35693
3.25,0.956289,2.43194,4.37242,3.70848,4.82469,1.35728
3.26,0.956195,2.43299,4.36286,3.69946,4.81536,1.35748
3.27,0.956208,2.43393,4.35331,3.69043,4.80602,1.35763
3.28,0.956255,2.43519,4.34374,3.68138,4.79667,1.35797
3.29,0.956219,2.43622,4.33419,3.67235,4.78732,1.35816
3.3,0.956278,2.43722,4.32463,3.66332,4.77797,1.35832
3.31,0.956529,2.43855,4.31507,3.65429,4.7686,1.35865
3.32,0.956587,2.43964,4.30551,3.64527,4.75923,1.35883
3.33,0.956642,2.44069,4.29594,3.63625,4.74985,1.35898
3.34,0.956667,2.44202,4.28638,3.6272,4.74046,1.3593
3.35,0.95673,2.44317,4.27682,3.61815,4.73106,1.35952
3.36,0.95678,2.4442,4.26725,3.60911,4.72165,1.35963
3.37,0.956812,2.44564,4.25769,3.60008,4.71222,1.35995
3.38,0.956833,2.4469,4.24812,3.59106,4.70279,1.36015
3.39,0.956433,2.44805,4.23856,3.58204,4.69334,1.36027
3.4,0.95647,2.44959,4.229,3.57303,4.68389,1.36059
3.41,0.956593,2.45087,4.21944,3.56399,4.67443,1.36077
3.42,0.956676,2.4521,4.20988,3.55495,4.66496,1.36093
3.43,0.956736,2.45368,4.20031,3.54592,4.65548,1.36126
3.44,0.956795,2.45506,4.19075,3.53688,4.64599,1.36146
3.45,0.956875,2.45637,4.18118,3.52786,4.63649,1.36161
3.46,0.95695,2.45803,4.17162,3.51883,4.62699,1.36194
3.47,0.957158,2.4595,4.16205,3.50981,4.61748,1.36215
3.48,0.957155,2.46086,4.15248,3.50077,4.60796,1.36232
3.49,0.957191,2.46251,4.14291,3.49172,4.59843,1.36265
3.5,0.957229,2.46403,4.13335,3.48269,4.58889,1.36286
3.51,0.957339,2.46555,4.12377,3.47367,4.57934,1.36305
3.52,0.957404,2.46735,4.11421,3.46465,4.56978,1.36338
3.53,0.957458,2.46895,4.10464,3.45564,4.56022,1.36357
3.54,0.957517,2.47059,4.09506,3.44663,4.55065,1.36379
3.55,0.95759,2.47241,4.08549,3.4376,4.54107,1.36411
3.56,0.957616,2.474,4.07592,3.42857,4.53148,1.3643
3.57,0.957878,2.47573,4.06635,3.41955,4.52188,1.36453
3.58,0.957952,2.47761,4.05677,3.41053,4.51228,1.36484
3.59,0.958007,2.47927,4.04719,3.40152,4.50266,1.36502
3.6,0.958065,2.48115,4.03762,3.39251,4.49304,1.3653
3.61,0.958104,2.48309,4.02804,3.3835,4.48342,1.3656
3.62,0.958183,2.48474,4.01846,3.37447,4.47378,1.36575
3.63,0.958204,2.4867,4.00888,3.36544,4.46413,1.36606
3.64,0.95825,2.48867,3.9993,3.35643,4.45448,1.36634
3.65,0.958299,2.49039,3.98972,3.34742,4.44481,1.36647
3.66,0.958475,2.49258,3.98014,3.33842,4.43514,1.36683
3.67,0.958524,2.49459,3.97056,3.32943,4.42546,1.36708
3.68,0.958618,2.49641,3.96098,3.32043,4.41578,1.36722
3.69,0.958648,2.49865,3.9514,3.31141,4.40608,1.3676
3.7,0.958693,2.50061,3.94181,3.30239,4.39638,1.36782
3.71,0.958584,2.50259,3.93223,3.29338,4.38667,1.36802
3.72,0.958626,2.50488,3.92265,3.28438,4.37695,1.36838
3.73,0.958757,2.50689,3.91306,3.27537,4.36723,1.36858
3.74,0.958756,2.50907,3.90348,3.26637,4.3575,1.36886
