time,velocity,ratio,centerX,Xmax,Xmin,Ymax
0,0,1,1.25,0.25,2.25,1
0.01,0.0168713,1.00007,1.24992,0.249978,2.24987,1.00002
0.02,0.0330202,1.00018,1.24967,0.2498,2.24956,1.00006
0.03,0.0481439,1.00025,1.24926,0.249444,2.2491,1.00008
0.04,0.0617477,1.00021,1.24871,0.248858,2.24857,1.00007
0.05,0.0742654,1.00012,1.24803,0.248097,2.24793,1.00004
0.06,0.0867346,1.00005,1.24722,0.247235,2.24718,1.00002
0.07,0.0989214,1.00008,1.2463,0.246347,2.24623,1.00002
0.08,0.110862,1.00017,1.24525,0.24537,2.24512,1.00004
0.09,0.122603,1.00021,1.24408,0.244242,2.24391,1.00005
0.1,0.135094,1.00014,1.24279,0.242932,2.24267,1.00001
0.11,0.15087,1,1.24137,0.241434,2.24138,0.999973
0.12,0.171814,0.99999,1.23976,0.239804,2.23985,1.00001
0.13,0.195489,1.00026,1.23793,0.238163,2.23782,1.00009
0.14,0.21751,1.00049,1.23586,0.23627,2.23565,1.00018
0.15,0.234749,1.00054,1.23359,0.234011,2.23324,1.00016
0.16,0.247023,1.00018,1.23118,0.231333,2.23108,1.00006
0.17,0.259782,0.999857,1.22865,0.228562,2.2287,0.999924
0.18,0.274342,0.999802,1.22598,0.225924,2.22609,0.999885
0.19,0.296644,1.00003,1.22314,0.223202,2.22328,1.00007
0.2,0.322159,1.00066,1.22004,0.220594,2.21969,1.00021
0.21,0.335133,1.00095,1.21674,0.217416,2.21608,1.00028
0.22,0.341915,1.00048,1.21336,0.213743,2.21304,1.00013
0.23,0.35415,0.999733,1.20989,0.209698,2.21,0.999882
0.24,0.37829,0.999433,1.20624,0.205937,2.2068,0.999866
0.25,0.401097,1.00016,1.20232,0.202476,2.20229,1.00007
0.26,0.411368,1.00098,1.19826,0.198999,2.19753,1.00025
0.27,0.418093,1.00088,1.19412,0.19472,2.19361,1.00032
0.28,0.435453,1.00037,1.18986,0.190367,2.18985,1.00011
0.29,0.45634,0.999863,1.18539,0.185238,2.18554,1.00001
0.3,0.467751,0.99982,1.18077,0.180736,2.18079,0.999847
0.31,0.484046,0.99995,1.17602,0.17599,2.17626,1.00009
0.32,0.502275,1.00079,1.17107,0.17186,2.17068,1.0002
0.33,0.505285,1.00099,1.16603,0.166784,2.16543,1.00031
0.34,0.513775,1.00059,1.16095,0.161402,2.16055,1.00017
0.35,0.532613,1,1.15572,0.155932,2.15605,1.00006
0.36,0.542885,0.99998,1.15034,0.150475,2.15026,0.999872
0.37,0.555708,1.00005,1.14486,0.144742,2.14481,1.00008
0.38,0.572827,1.00065,1.1392,0.139942,2.13911,1.00023
0.39,0.571887,1.00108,1.13347,0.134515,2.13279,1.00022
0.4,0.581696,1.00059,1.12773,0.127974,2.1274,1.0003
0.41,0.591869,1.00041,1.12184,0.122442,2.12172,1.00005
0.42,0.595444,0.999988,1.11591,0.116085,2.11607,0.999982
0.43,0.613561,1.00012,1.10987,0.109992,2.10985,1.00005
0.44,0.620139,1.0007,1.10369,0.104375,2.10322,1.00013
0.45,0.622798,1.00091,1.09748,0.0984107,2.09721,1.00031
0.46,0.627326,1.00088,1.09122,0.0919566,2.09089,1.00034
0.47,0.624331,1.00068,1.08497,0.0856161,2.08453,1.00013
0.48,0.635631,1.00016,1.07868,0.0789065,2.07874,1.00008
0.49,0.639231,1.0004,1.07229,0.0729918,2.0721,0.999958
0.5,0.644341,1.00052,1.06589,0.0662398,2.06567,1.00023
0.51,0.648767,1.00112,1.0594,0.0603535,2.05875,1.00032
0.52,0.639204,1.00125,1.05297,0.0543849,2.05242,1.00027
0.53,0.64082,1.00088,1.04657,0.0473729,2.0462,1.0003
0.54,0.634616,1.00088,1.04019,0.0412437,2.03962,1.00007
0.55,0.635774,1.00048,1.03385,0.0345823,2.03406,1.00022
0.56,0.634016,1.00102,1.02749,0.0287243,2.02701,1.00016
0.57,0.623422,1.00143,1.02121,0.0228374,2.0206,1.00031
0.58,0.617225,1.00172,1.01499,0.0169549,2.01441,1.00044
0.59,0.591353,1.00237,1.00894,0.0120504,2.00799,1.00033
0.6,0.569291,1.00249,1.00315,0.00663129,2.00264,1.00049
0.61,0.539723,1.00217,0.997577,1.83684e-08,1.99666,1.0005
0.62,0.490302,1.00492,0.992409,1.0421e-08,1.99133,1.00056
0.63,0.41955,1.00769,0.987829,7.15339e-09,1.98663,1.00095
0.64,0.294782,1.01105,0.984202,6.63663e-09,1.98149,1.0017
0.65,0.134815,1.01363,0.982039,-0,1.97769,1.00232
0.66,-0.0344301,1.01377,0.981528,4.52143e-09,1.97739,1.00231
0.67,-0.201214,1.01172,0.982718,2.88152e-09,1.98006,1.00163
0.68,-0.336872,1.00925,0.985439,2.61259e-09,1.98368,1.00102
0.69,-0.417304,1.00665,0.989273,-0,1.98827,1.00075
0.7,-0.459708,1.00439,0.993661,1.75763e-09,1.9926,1.00067
0.71,-0.4985,1.002,0.99846,7.67541e-09,1.99731,1.00065
0.72,-0.488716,0.99892,1.00346,-0,2.00269,1.00026
0.73,-0.445946,0.998052,1.00814,0.0059426,2.00871,0.999435
0.74,-0.396935,0.996351,1.01235,0.00893987,2.01443,0.999087
0.75,-0.355397,0.997481,1.01611,0.013108,2.01684,0.99934
0.76,-0.320533,0.999569,1.01948,0.0182448,2.01913,1.00001
0.77,-0.310953,1.00154,1.02261,0.0243183,2.02199,1.00037
0.78,-0.323687,1.00195,1.02578,0.0276583,2.0249,1.00057
0.79,-0.325793,1.00103,1.02904,0.0292418,2.02804,1.00043
0.8,-0.311786,0.999472,1.03224,0.0315516,2.03229,0.999841
0.81,-0.283457,0.99827,1.03523,0.0342027,2.03662,0.999474
0.82,-0.253969,0.998764,1.03791,0.037045,2.03855,0.999516
0.83,-0.22491,0.999989,1.0403,0.0397968,2.04003,1.00011
0.84,-0.214855,1.00138,1.04247,0.0436422,2.04166,1.00038
0.85,-0.230108,1.00158,1.04469,0.0461549,2.04394,1.00047
0.86,-0.240588,1.00066,1.04705,0.0471491,2.04637,1.00027
0.87,-0.231621,0.999296,1.04944,0.0485885,2.04961,0.999805
0.88,-0.202071,0.99854,1.05162,0.0506993,2.05277,0.999575
0.89,-0.180226,0.999404,1.05352,0.0532898,2.05379,0.999652
0.9,-0.160759,1.00049,1.05522,0.0551349,2.05464,1.00024
0.91,-0.150627,1.00144,1.05676,0.0579336,2.05576,1.00035
0.92,-0.155978,1.00093,1.05829,0.0591968,2.05804,1.00035
0.93,-0.156325,1.00012,1.05987,0.0597787,2.05957,1.00002
0.94,-0.143052,0.999181,1.06137,0.060322,2.06153,0.999785
0.95,-0.121401,0.999022,1.0627,0.0621882,2.06345,0.999651
0.96,-0.110015,0.999775,1.06384,0.0638208,2.06403,0.999882
0.97,-0.0983469,1.0007,1.06489,0.0650273,2.06427,1.00032
0.98,-0.0935774,1.00124,1.06584,0.0667774,2.06493,1.00031
0.99,-0.0952908,1.00061,1.06679,0.0675474,2.06673,1.0002
1,-0.0849231,0.999858,1.0677,0.0675036,2.0676,0.999905
1.01,-0.0632738,0.999212,1.06845,0.0676033,2.06873,0.999776
1.02,-0.0417507,0.999372,1.06896,0.0686943,2.0695,0.999775
1.03,-0.0324284,1.00022,1.06933,0.0695758,2.06914,1
1.04,-0.0241634,1.00086,1.06961,0.0699958,2.06888,1.0003
1.05,-0.0190803,1.00092,1.06982,0.0706364,2.06923,1.00021
1.06,-0.0146854,1.00017,1.07,0.070334,2.07011,1.00006
1.07,-0.000658865,0.99963,1.07008,0.0697575,2.07009,0.999796
1.08,0.0203233,0.999316,1.06999,0.0693255,2.07026,0.999783
