time,velocity,ratio,centerX,Xmax,Xmin,Ymax
0,0,1,1.75,0.75,2.75,1
0.01,0.0185266,1,1.74991,0.749917,2.7499,0.999999
0.02,0.0369699,1.00008,1.74963,0.749696,2.74958,1.00002
0.03,0.0551949,1.00014,1.74917,0.749277,2.74909,1.00004
0.04,0.0731697,1.0002,1.74853,0.74867,2.74841,1.00007
0.05,0.090812,1.00026,1.74771,0.747885,2.74754,1.00008
0.06,0.108157,1.00025,1.74672,0.746883,2.74654,1.00008
0.07,0.125002,1.00025,1.74555,0.745724,2.74536,1.00007
0.08,0.141849,1.0002,1.74422,0.744373,2.74406,1.00004
0.09,0.158771,1.00014,1.74272,0.742856,2.7426,1.00001
0.1,0.176213,1.00008,1.74104,0.741166,2.74097,0.999984
0.11,0.194412,0.99998,1.73919,0.739215,2.73925,0.999998
0.12,0.21346,1.00001,1.73715,0.737177,2.73725,1.00005
0.13,0.231906,1.00011,1.73493,0.735022,2.73494,1.00007
0.14,0.24874,1.00029,1.73252,0.732787,2.73237,1.00008
0.15,0.265554,1.00043,1.72995,0.730319,2.72962,1.00009
0.16,0.281079,1.00039,1.72722,0.727486,2.72693,1.00012
0.17,0.29765,1.00041,1.72433,0.724573,2.72402,1.00014
0.18,0.315382,1.00031,1.72126,0.721522,2.72115,1.00012
0.19,0.332825,1.00031,1.71802,0.718306,2.71794,1.00012
0.2,0.348459,1.00027,1.71461,0.714822,2.71439,1.00006
0.21,0.363682,1.00021,1.71105,0.711268,2.71086,1
0.22,0.379985,1.00023,1.70734,0.707576,2.70719,1.00003
0.23,0.39708,1.00008,1.70345,0.7034,2.70347,1.00011
0.24,0.412352,1.00027,1.6994,0.699548,2.6993,1.00014
0.25,0.427377,1.00046,1.69521,0.695683,2.69488,1.00005
0.26,0.442847,1.00055,1.69086,0.69139,2.6905,1.0001
0.27,0.458727,1.0004,1.68635,0.686554,2.68626,1.00025
0.28,0.472918,1.00051,1.68169,0.681916,2.68132,1.00022
0.29,0.48759,1.00069,1.67689,0.67743,2.67628,1.00012
0.3,0.503016,1.00059,1.67194,0.672543,2.67158,1.0001
0.31,0.516613,1.00039,1.66684,0.667048,2.66668,1.00021
0.32,0.530959,1.00025,1.6616,0.661673,2.66153,1.00018
0.33,0.544944,1.0005,1.65623,0.656833,2.65598,1.00007
0.34,0.558343,1.00051,1.65071,0.651129,2.65026,1.00007
0.35,0.572227,1.00034,1.64506,0.645143,2.6448,1.00017
0.36,0.586881,1.00048,1.63927,0.639677,2.63916,1.00022
0.37,0.600059,1.00068,1.63333,0.633863,2.63283,1.00016
0.38,0.613594,1.00081,1.62727,0.627878,2.62656,1.00015
0.39,0.626633,1.00074,1.62106,0.621824,2.62085,1.00025
0.4,0.639502,1.00065,1.61473,0.615049,2.61436,1.00031
0.41,0.653096,1.00073,1.60827,0.608682,2.60768,1.00023
0.42,0.665544,1.00085,1.60168,0.60249,2.60113,1.00017
0.43,0.678602,1.00066,1.59496,0.595482,2.59457,1.00021
0.44,0.690845,1.0006,1.58811,0.588455,2.5878,1.00027
0.45,0.703866,1.00066,1.58114,0.5817,2.58081,1.00022
0.46,0.715816,1.00073,1.57404,0.574686,2.57353,1.00015
0.47,0.727652,1.00087,1.56682,0.567415,2.5661,1.00022
0.48,0.73993,1.0006,1.55949,0.559917,2.55931,1.0003
0.49,0.751505,1.00096,1.55203,0.552709,2.55143,1.00033
0.5,0.76334,1.001,1.54445,0.545196,2.54373,1.00026
0.51,0.774312,1.00111,1.53677,0.537721,2.53612,1.00031
0.52,0.785862,1.00105,1.52896,0.529784,2.52844,1.00037
0.53,0.796717,1.00097,1.52105,0.521598,2.52036,1.00035
0.54,0.808135,1.0011,1.51303,0.513913,2.51235,1.00032
0.55,0.818746,1.00103,1.5049,0.505781,2.5042,1.00024
0.56,0.82926,1.00097,1.49665,0.497317,2.49607,1.00035
0.57,0.839815,1.00091,1.48831,0.488997,2.48785,1.00034
0.58,0.850265,1.00104,1.47986,0.480743,2.47929,1.00031
0.59,0.860455,1.00123,1.47131,0.472201,2.47039,1.00032
0.6,0.87022,1.00108,1.46265,0.463475,2.46205,1.00037
0.61,0.880365,1.00132,1.4539,0.454856,2.45312,1.00045
0.62,0.889459,1.00126,1.44505,0.445968,2.44424,1.0004
0.63,0.899079,1.00151,1.43611,0.437325,2.4351,1.00039
0.64,0.907725,1.00145,1.42708,0.42834,2.42627,1.00042
0.65,0.916657,1.00133,1.41795,0.418862,2.41716,1.00047
0.66,0.925457,1.00146,1.40874,0.409868,2.40785,1.00045
0.67,0.933689,1.00132,1.39945,0.400512,2.39867,1.0004
0.68,0.942255,1.0015,1.39007,0.391259,2.38911,1.00042
0.69,0.950085,1.00132,1.38061,0.381585,2.37985,1.00045
0.7,0.958179,1.0014,1.37107,0.372228,2.37037,1.00048
0.71,0.965955,1.00166,1.36145,0.36279,2.36034,1.00043
0.72,0.97283,1.00157,1.35175,0.353003,2.3508,1.00047
0.73,0.980107,1.00176,1.34199,0.343427,2.341,1.00054
0.74,0.986962,1.00173,1.33215,0.333445,2.33112,1.00057
0.75,0.993434,1.00179,1.32225,0.323676,2.32124,1.00057
0.76,0.99951,1.002,1.31229,0.314011,2.31108,1.00053
0.77,1.00508,1.00182,1.30227,0.303678,2.30124,1.0006
0.78,1.01076,1.00187,1.29219,0.293697,2.29116,1.0006
0.79,1.01644,1.00198,1.28205,0.283729,2.28089,1.00055
0.8,1.02104,1.00192,1.27186,0.273412,2.27074,1.00059
0.81,1.02584,1.00203,1.26163,0.263387,2.26045,1.00055
0.82,1.03046,1.00202,1.25135,0.253041,2.25028,1.00064
0.83,1.03421,1.00204,1.24102,0.242747,2.23999,1.00066
0.84,1.03761,1.00234,1.23066,0.232716,2.22924,1.00059
0.85,1.04056,1.00232,1.22027,0.222249,2.21903,1.00071
0.86,1.04265,1.00235,1.20986,0.211858,2.20863,1.00074
0.87,1.04489,1.00259,1.19942,0.201669,2.19794,1.00071
0.88,1.04651,1.00253,1.18896,0.191151,2.18765,1.00077
0.89,1.0469,1.00268,1.1785,0.180946,2.17706,1.00073
0.9,1.04731,1.00274,1.16803,0.170491,2.16654,1.00076
0.91,1.04753,1.00266,1.15755,0.159944,2.15632,1.00084
0.92,1.04677,1.0029,1.14708,0.149771,2.14554,1.00078
0.93,1.0455,1.00297,1.13662,0.139382,2.13504,1.00079
0.94,1.04353,1.00304,1.12617,0.129036,2.12473,1.00088
0.95,1.04061,1.00324,1.11575,0.118883,2.11418,1.00088
0.96,1.03692,1.00338,1.10537,0.108608,2.10371,1.00093
0.97,1.03228,1.00366,1.09502,0.0986171,2.09327,1.00098
0.98,1.02607,1.00387,1.08473,0.0886176,2.08289,1.001
0.99,1.01891,1.00407,1.0745,0.0786095,2.07264,1.00108
1,1.01064,1.00436,1.06436,0.0688159,2.0624,1.00113
1.01,1.00024,1.00467,1.0543,0.0592826,2.05227,1.00115
1.02,0.988131,1.0051,1.04436,0.0499249,2.04218,1.00121
1.03,0.973891,1.00554,1.03455,0.0407667,2.03232,1.0013
1.04,0.956591,1.00619,1.0249,0.0321664,2.02259,1.00137
1.05,0.936428,1.00716,1.01543,0.0241174,2.01284,1.00148
1.06,0.911173,1.00845,1.00619,0.0169471,2.00338,1.00161
1.07,0.880607,1.01036,0.997224,0.0110806,1.99414,1.0018
1.08,0.842304,1.01284,0.988604,0.00642728,1.98519,1.00209
1.09,0.794062,1.0144,0.980411,7.90024e-05,1.97642,1.0024
1.1,0.733593,1.01923,0.972764,-0,1.96794,1.00289
1.11,0.660253,1.02404,0.965779,-0,1.96,1.00356
1.12,0.572275,1.02871,0.959604,6.8037e-09,1.95259,1.00432
1.13,0.468437,1.03317,0.954384,3.73281e-09,1.94571,1.00512
1.14,0.350439,1.03698,0.950277,4.50183e-09,1.94022,1.00599
1.15,0.225165,1.03991,0.947392,4.26292e-09,1.93631,1.0068
1.16,0.0951617,1.04174,0.945785,-0,1.93377,1.00724
1.17,-0.0356723,1.04227,0.945486,4.72582e-09,1.9328,1.00725
1.18,-0.161947,1.04102,0.946477,4.16305e-09,1.93454,1.00694
1.19,-0.280993,1.03854,0.948695,4.07959e-09,1.93812,1.00641
1.2,-0.390472,1.03506,0.95206,5.35821e-09,1.94296,1.00554
1.21,-0.483329,1.03097,0.956442,3.81971e-09,1.9488,1.00457
1.22,-0.557631,1.02642,0.961658,3.94004e-09,1.95556,1.00361
1.23,-0.616252,1.02194,0.967537,4.32362e-09,1.96263,1.00284
1.24,-0.657802,1.01733,0.973923,1.80641e-08,1.97025,1.0022
1.25,-0.677302,1.01281,0.980612,-0,1.97795,1.00165
1.26,-0.680848,1.00832,0.987412,2.09055e-07,1.9855,1.001
1.27,-0.670307,1.00404,0.994178,-0,1.99282,1.00043
1.28,-0.646685,0.999544,1.00077,-0,2.0008,0.999946
1.29,-0.613039,0.99544,1.00708,-0,2.00806,0.999449
1.3,-0.569443,0.993822,1.013,0.00433576,2.01457,0.998909
1.31,-0.520128,0.99225,1.01845,0.00841442,2.02088,0.998435
1.32,-0.468743,0.992354,1.02339,0.0144752,2.02629,0.998216
1.33,-0.418423,0.99294,1.02782,0.0206449,2.03098,0.998069
1.34,-0.376934,0.994577,1.03179,0.0272373,2.03467,0.998274
1.35,-0.345154,0.997054,1.03539,0.033673,2.03755,0.998987
1.36,-0.32405,0.999776,1.03873,0.0393667,2.03969,0.999938
1.37,-0.308894,1.00293,1.04189,0.0443704,2.04042,1.00095
1.38,-0.298837,1.00545,1.04493,0.0486959,2.04121,1.00169
1.39,-0.292392,1.00671,1.04788,0.0522942,2.04318,1.00212
1.4,-0.288802,1.00649,1.05078,0.0552289,2.04649,1.00209
1.41,-0.285424,1.00481,1.05366,0.0574088,2.05081,1.00149
1.42,-0.279644,1.00236,1.05649,0.0591503,2.0558,1.00069
1.43,-0.268542,0.999725,1.05923,0.0598618,2.05994,0.999766
1.44,-0.24966,0.997189,1.06183,0.059868,2.06361,0.999056
1.45,-0.22312,0.995706,1.0642,0.0604235,2.0664,0.998682
1.46,-0.191531,0.995081,1.06628,0.0617857,2.06868,0.99851
1.47,-0.159866,0.995766,1.06803,0.0641656,2.06999,0.998667
1.48,-0.133544,0.997327,1.06949,0.0674729,2.07098,0.999076
1.49,-0.113551,0.999334,1.07072,0.0707102,2.07161,0.999782
1.5,-0.0994226,1.0018,1.07178,0.0736783,2.07118,1.00055
1.51,-0.090739,1.00381,1.07273,0.0757919,2.0705,1.00115
1.52,-0.0859781,1.00514,1.07361,0.0772884,2.07025,1.0016
1.53,-0.0826766,1.00524,1.07446,0.0778988,2.07085,1.0017
1.54,-0.0791407,1.00419,1.07526,0.0780092,2.07248,1.00142
1.55,-0.0752822,1.00252,1.07604,0.077947,2.07456,1.00082
1.56,-0.0693453,1.00037,1.07676,0.0774344,2.07681,1.00005
1.57,-0.0587538,0.998398,1.07741,0.0764864,2.07863,0.999466
1.58,-0.0424405,0.996933,1.07792,0.0755398,2.07988,0.999095
1.59,-0.0218311,0.996444,1.07825,0.0750744,2.08013,0.998961
1.6,0.000374698,0.996961,1.07835,0.0755087,2.07972,0.999059
