time,velocity,ratio,centerX,Xmax,Xmin,Ymax
0,0,1,4.75,3.75,5.75,1
0.01,0.0198797,0.99999,4.74991,3.74989,5.74993,1.00001
0.02,0.0396293,1,4.74963,3.74961,5.74963,1.00001
0.03,0.0592588,1.00002,4.74916,3.74915,5.74914,1.00002
0.04,0.0787554,1.00005,4.7485,3.74848,5.74843,1.00003
0.05,0.0981121,1.00008,4.74764,3.74763,5.74752,1.00003
0.06,0.117352,1.00013,4.74659,3.74658,5.7464,1.00004
0.07,0.136451,1.00017,4.74534,3.74534,5.74508,1.00004
0.08,0.155357,1.00022,4.74392,3.74393,5.74356,1.00004
0.09,0.174137,1.00028,4.7423,3.74233,5.74185,1.00004
0.1,0.192783,1.00038,4.7405,3.74055,5.73993,1.00007
0.11,0.211323,1.00049,4.73851,3.7386,5.73783,1.0001
0.12,0.229712,1.0006,4.73633,3.73648,5.73553,1.00013
0.13,0.247971,1.00073,4.73398,3.73419,5.73305,1.00016
0.14,0.266079,1.00086,4.73144,3.73173,5.7304,1.00019
0.15,0.284065,1.00099,4.72872,3.72909,5.72757,1.00023
0.16,0.301904,1.00114,4.72582,3.72629,5.72454,1.00026
0.17,0.319599,1.00135,4.72274,3.72333,5.72131,1.00034
0.18,0.337166,1.0016,4.71949,3.72022,5.71786,1.00042
0.19,0.354614,1.00188,4.71606,3.71696,5.7142,1.0005
0.2,0.371889,1.00219,4.71245,3.71353,5.71034,1.00059
0.21,0.389272,1.00254,4.70868,3.70996,5.70626,1.00069
0.22,0.406264,1.00299,4.70473,3.70625,5.70196,1.00083
0.23,0.423278,1.00347,4.70061,3.70241,5.69744,1.00098
0.24,0.439995,1.004,4.69632,3.69842,5.69269,1.00112
0.25,0.45667,1.00459,4.69187,3.69428,5.68771,1.0013
0.26,0.473,1.00527,4.68724,3.68999,5.6825,1.00151
0.27,0.489537,1.00599,4.68246,3.68556,5.67706,1.00171
0.28,0.505671,1.00679,4.67751,3.68102,5.67136,1.00193
0.29,0.521651,1.0077,4.6724,3.67635,5.66546,1.00221
0.3,0.537452,1.00867,4.66713,3.67158,5.65933,1.00249
0.31,0.55307,1.00971,4.66171,3.66669,5.65297,1.00279
0.32,0.56898,1.01089,4.65612,3.66168,5.64637,1.00315
0.33,0.584158,1.01213,4.65038,3.65656,5.63954,1.00351
0.34,0.599072,1.01347,4.64449,3.65134,5.63245,1.0039
0.35,0.614103,1.01493,4.63845,3.646,5.62513,1.00434
0.36,0.628468,1.01648,4.63226,3.64058,5.61755,1.00477
0.37,0.642504,1.01817,4.62593,3.63507,5.60973,1.00527
0.38,0.656294,1.01996,4.61946,3.62943,5.60164,1.00579
0.39,0.670167,1.0218,4.61285,3.62366,5.59333,1.00631
0.4,0.683445,1.02383,4.60611,3.61779,5.58475,1.00691
0.41,0.696706,1.02594,4.59923,3.61186,5.57592,1.00751
0.42,0.709509,1.02823,4.59222,3.60587,5.56682,1.00815
0.43,0.722009,1.03063,4.58509,3.59979,5.55747,1.00883
0.44,0.734534,1.03316,4.57783,3.59365,5.54784,1.00949
0.45,0.746695,1.03586,4.57044,3.58742,5.53797,1.01025
0.46,0.758577,1.03868,4.56294,3.58112,5.5278,1.01099
0.47,0.77027,1.04166,4.55531,3.57475,5.5174,1.01179
0.48,0.781397,1.0448,4.54757,3.56829,5.50666,1.01261
0.49,0.792256,1.04806,4.53973,3.56173,5.49568,1.01345
0.5,0.802682,1.05152,4.53177,3.5551,5.48439,1.01434
0.51,0.812877,1.05509,4.52371,3.54841,5.47285,1.01523
0.52,0.822741,1.05891,4.51555,3.54169,5.461,1.01618
0.53,0.832461,1.06282,4.5073,3.5349,5.44889,1.01711
0.54,0.841793,1.06703,4.49894,3.52806,5.43643,1.01814
0.55,0.850665,1.07134,4.4905,3.52115,5.42372,1.01915
0.56,0.859187,1.07595,4.48197,3.51421,5.41066,1.02024
0.57,0.867481,1.08067,4.47335,3.50719,5.39737,1.02132
0.58,0.875323,1.08563,4.46465,3.5001,5.38374,1.02247
0.59,0.882802,1.09071,4.45588,3.4929,5.36987,1.02361
0.6,0.889992,1.09607,4.44703,3.48569,5.35564,1.0248
0.61,0.896875,1.10162,4.43811,3.47846,5.34118,1.02601
0.62,0.903292,1.10745,4.42913,3.47121,5.32635,1.02724
0.63,0.909568,1.11348,4.42008,3.46393,5.31128,1.0285
0.64,0.91541,1.11978,4.41096,3.45663,5.29586,1.02977
0.65,0.920959,1.12629,4.4018,3.44929,5.28021,1.03108
0.66,0.926461,1.13301,4.39257,3.4419,5.26425,1.03237
0.67,0.931583,1.13999,4.38329,3.43445,5.24799,1.03371
0.68,0.936235,1.14721,4.37396,3.42697,5.23144,1.03505
0.69,0.940556,1.15473,4.36459,3.41948,5.21461,1.03645
0.7,0.94456,1.16248,4.35517,3.41196,5.19753,1.03784
0.71,0.948253,1.17052,4.34572,3.40443,5.18018,1.03928
0.72,0.951624,1.17879,4.33623,3.39688,5.16259,1.0407
0.73,0.954916,1.18732,4.3267,3.38931,5.14481,1.04217
0.74,0.957712,1.19575,4.31715,3.38171,5.12725,1.04362
0.75,0.960423,1.20411,4.30756,3.37405,5.10998,1.04512
0.76,0.962761,1.21223,4.29796,3.36636,5.09306,1.04658
0.77,0.96488,1.22029,4.28833,3.35868,5.07647,1.0481
0.78,0.966847,1.22814,4.27868,3.35099,5.06021,1.04958
0.79,0.968582,1.23591,4.26901,3.3433,5.0443,1.05114
0.8,0.970004,1.24347,4.25932,3.33558,5.02868,1.05265
0.81,0.971217,1.25098,4.24963,3.32786,5.01334,1.05425
0.82,0.972073,1.25826,4.23992,3.32012,4.99829,1.05579
0.83,0.972904,1.26548,4.2302,3.31233,4.9835,1.05741
0.84,0.97355,1.2725,4.22047,3.30452,4.96894,1.05898
0.85,0.974089,1.27946,4.21074,3.29672,4.95461,1.06061
0.86,0.974459,1.28626,4.20101,3.28891,4.9405,1.06219
0.87,0.974662,1.29298,4.19127,3.28109,4.92659,1.0638
0.88,0.974745,1.29954,4.18153,3.27326,4.91288,1.06538
0.89,0.974669,1.30606,4.17179,3.26542,4.89936,1.06701
0.9,0.97448,1.3124,4.16205,3.25758,4.88606,1.06861
0.91,0.974184,1.31866,4.15232,3.24968,4.87291,1.07025
0.92,0.973711,1.32482,4.14258,3.24175,4.85988,1.07187
0.93,0.973206,1.33086,4.13286,3.23385,4.84711,1.07351
0.94,0.972653,1.33685,4.12314,3.22596,4.83442,1.07514
0.95,0.972081,1.34276,4.11342,3.21806,4.82188,1.07677
0.96,0.971385,1.34854,4.10371,3.21015,4.80951,1.0784
0.97,0.970515,1.35429,4.09401,3.20225,4.79721,1.08002
0.98,0.969612,1.35988,4.08431,3.19432,4.78513,1.08165
0.99,0.96866,1.36545,4.07463,3.18637,4.77307,1.08329
1,0.967627,1.37086,4.06496,3.17839,4.76125,1.08493
1.01,0.966553,1.37632,4.05529,3.17045,4.7494,1.08657
1.02,0.965418,1.38161,4.04564,3.16249,4.7378,1.08823
1.03,0.964241,1.38692,4.03601,3.15454,4.72618,1.08987
1.04,0.963009,1.3921,4.02638,3.14658,4.71476,1.09153
1.05,0.961661,1.39722,4.01676,3.13864,4.70339,1.09315
1.06,0.9604,1.40229,4.00716,3.13067,4.69212,1.0948
1.07,0.959088,1.40717,3.99758,3.12266,4.68097,1.0964
1.08,0.957746,1.41211,3.988,3.11461,4.66981,1.09806
1.09,0.95638,1.41684,3.97844,3.1066,4.65888,1.09967
1.1,0.955027,1.42167,3.9689,3.09859,4.64794,1.10134
1.11,0.953669,1.42638,3.95936,3.0906,4.63709,1.10294
1.12,0.952348,1.43105,3.94984,3.08259,4.62636,1.10461
1.13,0.950933,1.43568,3.94034,3.07461,4.61563,1.10621
1.14,0.949561,1.44027,3.93084,3.06659,4.60501,1.10787
1.15,0.948264,1.44466,3.92136,3.05854,4.5945,1.10946
1.16,0.9469,1.44912,3.9119,3.05049,4.58396,1.1111
1.17,0.945575,1.45344,3.90245,3.04246,4.57355,1.11268
1.18,0.944241,1.45778,3.89301,3.03441,4.56322,1.11433
1.19,0.942897,1.46209,3.88358,3.02639,4.55288,1.11593
1.2,0.941513,1.46639,3.87417,3.01834,4.54261,1.11758
1.21,0.940141,1.47055,3.86477,3.01032,4.53247,1.11919
1.22,0.938766,1.47472,3.85539,3.00224,4.52231,1.12084
1.23,0.93744,1.47883,3.84602,2.99414,4.51216,1.12245
1.24,0.936095,1.4828,3.83666,2.98604,4.5022,1.12408
1.25,0.934689,1.48679,3.82732,2.97797,4.49221,1.12568
1.26,0.93338,1.49081,3.81799,2.9699,4.4822,1.12728
1.27,0.93203,1.49472,3.80867,2.96184,4.47233,1.12888
1.28,0.930732,1.49854,3.79937,2.95376,4.46253,1.13048
1.29,0.929374,1.50245,3.79008,2.9457,4.45269,1.13209
1.3,0.928059,1.5063,3.7808,2.93759,4.44285,1.13368
1.31,0.926768,1.51,3.77154,2.92947,4.43317,1.13529
1.32,0.92521,1.51367,3.76229,2.92135,4.42349,1.13687
1.33,0.923958,1.51741,3.75305,2.91326,4.41382,1.13848
1.34,0.922743,1.52111,3.74383,2.90516,4.40412,1.14004
1.35,0.921469,1.52468,3.73462,2.89708,4.39462,1.14164
1.36,0.920366,1.5282,3.72542,2.88899,4.3851,1.14317
1.37,0.919151,1.53186,3.71623,2.88091,4.37554,1.14478
1.38,0.917918,1.5354,3.70706,2.87277,4.36597,1.14632
1.39,0.916708,1.53885,3.6979,2.86461,4.35655,1.14794
1.4,0.915123,1.54221,3.68875,2.85648,4.34717,1.14948
1.41,0.913982,1.54574,3.67961,2.84837,4.33774,1.15109
1.42,0.912873,1.5492,3.67049,2.84026,4.3283,1.15264
1.43,0.911798,1.55263,3.66138,2.83216,4.31897,1.15423
1.44,0.910781,1.55594,3.65228,2.82406,4.30969,1.15578
1.45,0.90975,1.55927,3.64318,2.81594,4.30041,1.15734
1.46,0.908826,1.56255,3.6341,2.80778,4.29109,1.15887
1.47,0.907896,1.56592,3.62503,2.79963,4.28176,1.16044
1.48,0.906955,1.56906,3.61597,2.79149,4.27261,1.16198
1.49,0.906015,1.5723,3.60691,2.78335,4.26342,1.16355
1.5,0.905102,1.57551,3.59787,2.77521,4.25422,1.1651
1.51,0.904176,1.57883,3.58883,2.76709,4.24497,1.16666
1.52,0.903352,1.58202,3.57981,2.75895,4.23581,1.1682
1.53,0.902512,1.58505,3.57079,2.75079,4.22676,1.16974
1.54,0.901703,1.58809,3.56178,2.74258,4.21766,1.17128
1.55,0.900901,1.59115,3.55278,2.73439,4.20854,1.17279
1.56,0.900122,1.59428,3.54378,2.72622,4.19938,1.17432
1.57,0.899388,1.59726,3.5348,2.71806,4.19038,1.17584
1.58,0.898594,1.60022,3.52582,2.70989,4.18142,1.17738
1.59,0.897878,1.60325,3.51685,2.70174,4.17239,1.17891
1.6,0.897117,1.60629,3.50788,2.69357,4.16337,1.18046
1.61,0.896386,1.60933,3.49893,2.68539,4.15429,1.18198
1.62,0.895707,1.61218,3.48998,2.67717,4.14541,1.18354
1.63,0.895014,1.615,3.48104,2.66898,4.13652,1.18504
1.64,0.894466,1.61796,3.4721,2.66078,4.12757,1.1866
1.65,0.893706,1.62083,3.46317,2.65261,4.11861,1.18808
1.66,0.893113,1.6238,3.45424,2.64442,4.10965,1.18962
1.67,0.892486,1.62659,3.44533,2.63625,4.10077,1.19109
1.68,0.891909,1.62938,3.43642,2.62805,4.09198,1.19265
1.69,0.891339,1.63209,3.42751,2.61981,4.08311,1.19412
1.7,0.890788,1.63494,3.41861,2.61156,4.07422,1.19568
1.71,0.890241,1.63778,3.40972,2.60335,4.06528,1.19716
1.72,0.889732,1.64056,3.40083,2.59514,4.05646,1.1987
1.73,0.889131,1.64324,3.39195,2.58694,4.04769,1.20018
1.74,0.888628,1.64597,3.38307,2.57873,4.03891,1.2017
1.75,0.888172,1.64875,3.3742,2.57054,4.03005,1.20318
1.76,0.887801,1.65148,3.36533,2.56231,4.02122,1.20468
1.77,0.88739,1.6542,3.35647,2.55408,4.01236,1.20615
1.78,0.886977,1.65683,3.3476,2.54585,4.00364,1.20766
1.79,0.88654,1.65943,3.33875,2.53763,3.99493,1.20914
1.8,0.886132,1.66212,3.3299,2.5294,3.98616,1.21065
1.81,0.885735,1.66481,3.32105,2.52119,3.97738,1.21214
1.82,0.885195,1.6676,3.3122,2.51297,3.96852,1.21364
1.83,0.884884,1.67016,3.30337,2.50475,3.95986,1.21513
1.84,0.884491,1.67261,3.29453,2.49647,3.95121,1.21661
1.85,0.884122,1.67518,3.2857,2.4882,3.9425,1.2181
1.86,0.883821,1.67775,3.27687,2.47996,3.93377,1.21956
1.87,0.88346,1.68044,3.26804,2.47173,3.92497,1.22104
1.88,0.883168,1.68306,3.25922,2.46349,3.91621,1.2225
1.89,0.882958,1.68555,3.2504,2.45527,3.90762,1.224
1.9,0.882728,1.68802,3.24159,2.44704,3.899,1.22546
1.91,0.882531,1.69061,3.23277,2.43879,3.89029,1.22696
1.92,0.882355,1.69308,3.22396,2.43051,3.88161,1.22842
1.93,0.882185,1.69578,3.21515,2.42225,3.87283,1.22992
1.94,0.882026,1.69828,3.20634,2.414,3.86413,1.23137
1.95,0.88189,1.70072,3.19753,2.40577,3.85559,1.23287
1.96,0.881859,1.70315,3.18872,2.39752,3.84696,1.2343
1.97,0.881694,1.70567,3.17992,2.3893,3.83832,1.23578
1.98,0.88162,1.70817,3.17111,2.38105,3.82961,1.2372
1.99,0.881565,1.71076,3.16231,2.37277,3.8209,1.2387
2,0.881593,1.71306,3.1535,2.36445,3.8123,1.24013
2.01,0.881542,1.71553,3.1447,2.35618,3.80371,1.24164
2.02,0.881463,1.71787,3.1359,2.3479,3.79514,1.24308
2.03,0.881447,1.72044,3.12709,2.33965,3.78648,1.24459
2.04,0.881209,1.72293,3.11829,2.3314,3.77781,1.24603
2.05,0.881305,1.72563,3.10949,2.32316,3.76905,1.24753
2.06,0.881331,1.72793,3.10069,2.31489,3.76053,1.24898
2.07,0.881324,1.73032,3.09188,2.30661,3.75196,1.25046
2.08,0.881361,1.73266,3.08308,2.29834,3.74337,1.25188
2.09,0.881367,1.73518,3.07428,2.29008,3.73472,1.25335
2.1,0.881363,1.73763,3.06548,2.28181,3.72606,1.25479
2.11,0.880618,1.74027,3.05668,2.27357,3.71732,1.25626
2.12,0.880636,1.74258,3.04789,2.26532,3.70881,1.25771
2.13,0.88055,1.74494,3.03909,2.25707,3.7003,1.25917
2.14,0.880545,1.74733,3.0303,2.24878,3.69169,1.26062
2.15,0.880511,1.7497,3.02151,2.24046,3.68308,1.26207
2.16,0.880489,1.75219,3.01271,2.23218,3.6744,1.26352
2.17,0.88047,1.75473,3.00392,2.22391,3.66569,1.26496
2.18,0.880508,1.75692,2.99512,2.21565,3.65726,1.2664
2.19,0.880504,1.75931,2.98633,2.20739,3.64866,1.26782
2.2,0.88056,1.76169,2.97754,2.19914,3.64009,1.26926
2.21,0.880552,1.76414,2.96874,2.19087,3.63145,1.27069
2.22,0.880648,1.76659,2.95995,2.18257,3.6228,1.27215
2.23,0.880791,1.76915,2.95115,2.17428,3.61404,1.27357
2.24,0.880914,1.77142,2.94236,2.16601,3.60556,1.27503
2.25,0.881036,1.77374,2.93356,2.15775,3.59702,1.27645
2.26,0.881243,1.77611,2.92476,2.14949,3.58848,1.27791
2.27,0.88141,1.77859,2.91595,2.14125,3.57982,1.27931
2.28,0.881529,1.78109,2.90715,2.13301,3.57118,1.28076
2.29,0.881751,1.78351,2.89835,2.12474,3.56251,1.28215
2.3,0.881958,1.78588,2.88954,2.11644,3.55393,1.28359
2.31,0.882201,1.78812,2.88073,2.10819,3.54542,1.28498
2.32,0.882491,1.79054,2.87192,2.09993,3.53684,1.28643
2.33,0.88282,1.79294,2.8631,2.09168,3.52822,1.28782
2.34,0.883104,1.79553,2.85428,2.08342,3.51952,1.28928
2.35,0.883369,1.79806,2.84546,2.07519,3.51079,1.29065
2.36,0.883701,1.80041,2.83664,2.06692,3.50228,1.29211
2.37,0.883955,1.80263,2.82781,2.05864,3.49375,1.29349
2.38,0.884196,1.80495,2.81898,2.05035,3.48522,1.29494
2.39,0.884479,1.80741,2.81015,2.0421,3.47653,1.29631
2.4,0.884853,1.80995,2.80132,2.03383,3.46782,1.29773
2.41,0.885331,1.81252,2.79248,2.02559,3.45905,1.29909
2.42,0.885649,1.81492,2.78363,2.01734,3.45047,1.30051
2.43,0.885985,1.81725,2.77479,2.0091,3.44191,1.30188
2.44,0.886237,1.81962,2.76594,2.00082,3.43333,1.30332
2.45,0.886419,1.82206,2.75708,1.9925,3.42462,1.3047
2.46,0.886683,1.82455,2.74823,1.98421,3.41595,1.30614
2.47,0.887024,1.82723,2.73937,1.97596,3.40711,1.30752
2.48,0.887302,1.82967,2.73051,1.9677,3.3985,1.30895
2.49,0.88761,1.83202,2.72165,1.95947,3.38994,1.31033
2.5,0.887981,1.83456,2.71278,1.95123,3.38127,1.31174
2.51,0.888315,1.83709,2.70391,1.94301,3.37256,1.31312
2.52,0.888688,1.83974,2.69504,1.93474,3.36376,1.31451
2.53,0.889037,1.84242,2.68616,1.92648,3.35491,1.31588
2.54,0.889409,1.84494,2.67728,1.91823,3.34622,1.31728
2.55,0.889844,1.8474,2.6684,1.91,3.33758,1.31866
2.56,0.890235,1.84977,2.65951,1.90176,3.32902,1.32005
2.57,0.890515,1.85259,2.65061,1.89355,3.32012,1.32143
2.58,0.890865,1.85531,2.64172,1.88534,3.31131,1.32282
2.59,0.891207,1.85818,2.63282,1.87711,3.30237,1.3242
2.6,0.891419,1.86078,2.62392,1.86885,3.29359,1.32557
2.61,0.891771,1.86327,2.61501,1.86062,3.28494,1.32695
2.62,0.892097,1.86586,2.6061,1.8524,3.27621,1.32831
2.63,0.892475,1.86859,2.59719,1.8442,3.26738,1.32968
2.64,0.892738,1.87139,2.58828,1.83599,3.25849,1.33103
2.65,0.892999,1.87442,2.57936,1.8278,3.24947,1.33241
2.66,0.893327,1.87722,2.57044,1.81959,3.24059,1.33377
2.67,0.893638,1.87971,2.56151,1.81137,3.23196,1.33515
2.68,0.894001,1.88246,2.55259,1.80313,3.22308,1.3365
2.69,0.894382,1.88523,2.54366,1.79493,3.21426,1.33789
2.7,0.894667,1.8882,2.53472,1.78672,3.20525,1.33923
2.71,0.894887,1.89124,2.52579,1.77854,3.19624,1.34061
2.72,0.895072,1.89367,2.51685,1.77035,3.18764,1.34195
2.73,0.895437,1.897,2.50791,1.76218,3.17845,1.34333
2.74,0.895804,1.8997,2.49896,1.75399,3.16962,1.34464
2.75,0.896118,1.90268,2.49001,1.74575,3.16061,1.34601
2.76,0.896469,1.90557,2.48106,1.73752,3.15161,1.34733
2.77,0.896841,1.9089,2.4721,1.72933,3.1424,1.3487
2.78,0.897122,1.91189,2.46315,1.72114,3.13338,1.35002
2.79,0.897351,1.91479,2.45418,1.71298,3.12452,1.3514
2.8,0.897636,1.9178,2.44522,1.70482,3.11551,1.35271
2.81,0.897831,1.92093,2.43625,1.69668,3.10651,1.35409
2.82,0.89806,1.92423,2.42728,1.68851,3.09727,1.35539
2.83,0.898261,1.92758,2.41831,1.68033,3.08807,1.35676
2.84,0.898499,1.93041,2.40934,1.67217,3.07918,1.35805
2.85,0.89859,1.93403,2.40036,1.66403,3.06984,1.35944
2.86,0.898777,1.937,2.39139,1.65588,3.06083,1.36069
2.87,0.898965,1.94042,2.38241,1.64776,3.05163,1.36205
2.88,0.899043,1.94377,2.37343,1.63965,3.04242,1.36333
2.89,0.89921,1.94758,2.36445,1.63154,3.03297,1.3647
2.9,0.899009,1.95097,2.35547,1.6234,3.02371,1.36598
2.91,0.899176,1.95419,2.34649,1.61525,3.01465,1.36735
2.92,0.899222,1.95757,2.33751,1.60713,3.00542,1.36863
2.93,0.899247,1.96115,2.32852,1.59903,2.99617,1.36999
2.94,0.899226,1.96485,2.31954,1.59094,2.98674,1.37126
2.95,0.899299,1.96881,2.31056,1.58288,2.97724,1.37262
2.96,0.899198,1.97243,2.30158,1.57481,2.9679,1.37388
2.97,0.899098,1.97599,2.2926,1.56674,2.95868,1.37523
2.98,0.899019,1.9795,2.28362,1.55865,2.94938,1.37648
2.99,0.898494,1.98332,2.27463,1.55058,2.93997,1.37781
3,0.898319,1.98721,2.26566,1.54252,2.93046,1.37906
3.01,0.89831,1.99149,2.25669,1.53449,2.92078,1.38039
3.02,0.898352,1.99537,2.24772,1.52645,2.9113,1.38164
3.03,0.898333,1.99923,2.23874,1.51843,2.90194,1.38297
3.04,0.898385,2.00283,2.22977,1.51042,2.89268,1.38421
3.05,0.898269,2.00724,2.2208,1.50239,2.88292,1.38553
3.06,0.898176,2.01114,2.21182,1.49432,2.87341,1.38677
3.07,0.897826,2.01586,2.20285,1.4863,2.86345,1.38808
3.08,0.897664,2.01997,2.19389,1.47829,2.85386,1.3893
3.09,0.897406,2.02382,2.18492,1.47031,2.84458,1.39064
3.1,0.897158,2.02814,2.17596,1.46233,2.83483,1.39181
3.11,0.89689,2.03249,2.167,1.45437,2.8252,1.3931
3.12,0.896643,2.03706,2.15804,1.4464,2.81535,1.39431
3.13,0.896071,2.04183,2.14909,1.43843,2.80544,1.3956
3.14,0.89571,2.04644,2.14014,1.43044,2.79555,1.39681
3.15,0.895264,2.05068,2.13119,1.42249,2.78603,1.39809
3.16,0.894847,2.05514,2.12225,1.41455,2.77629,1.39929
3.17,0.894356,2.05976,2.11331,1.40663,2.76657,1.40058
3.18,0.893814,2.06466,2.10438,1.39872,2.75658,1.40176
3.19,0.893232,2.06986,2.09546,1.39084,2.74652,1.40303
3.2,0.892678,2.07453,2.08654,1.38295,2.73672,1.40421
3.21,0.892103,2.07964,2.07762,1.37506,2.7267,1.40546
3.22,0.891345,2.08427,2.06871,1.36713,2.71689,1.40663
3.23,0.890803,2.08916,2.05981,1.35924,2.70702,1.40786
3.24,0.890014,2.09427,2.05092,1.35137,2.69697,1.40902
3.25,0.889297,2.09986,2.04203,1.34352,2.68671,1.41025
3.26,0.888557,2.10529,2.03315,1.33569,2.67651,1.41141
3.27,0.887732,2.11086,2.02428,1.32788,2.66632,1.41263
3.28,0.886942,2.11515,2.01541,1.32007,2.65689,1.41379
3.29,0.886168,2.12108,2.00656,1.31226,2.64648,1.415
3.3,0.885131,2.12644,1.99771,1.30444,2.63638,1.41614
3.31,0.884309,2.13193,1.98887,1.29666,2.62629,1.41734
3.32,0.883462,2.13779,1.98004,1.28889,2.61594,1.41847
3.33,0.882448,2.14393,1.97122,1.28115,2.60549,1.41965
3.34,0.881453,2.14928,1.96241,1.2734,2.59551,1.42079
3.35,0.88028,2.15556,1.95361,1.26569,2.58503,1.42195
3.36,0.879073,2.16116,1.94482,1.25798,2.57492,1.42306
3.37,0.877989,2.16685,1.93604,1.25026,2.56478,1.42419
3.38,0.876907,2.17274,1.92728,1.2425,2.55449,1.42531
3.39,0.875749,2.17886,1.91852,1.23479,2.54412,1.42643
3.4,0.874732,2.18517,1.90978,1.22711,2.53369,1.42756
3.41,0.873564,2.19172,1.90105,1.21945,2.52315,1.42867
3.42,0.872348,2.19807,1.89233,1.21182,2.51278,1.4298
3.43,0.87105,2.20416,1.88362,1.20421,2.50257,1.43089
3.44,0.869623,2.21064,1.87492,1.19661,2.49218,1.43202
3.45,0.868213,2.21713,1.86624,1.18902,2.48175,1.43308
3.46,0.866848,2.22343,1.85757,1.18142,2.4715,1.4342
3.47,0.86554,2.23031,1.84892,1.17386,2.46089,1.43524
3.48,0.864306,2.23662,1.84028,1.16632,2.45073,1.43637
3.49,0.862986,2.24393,1.83165,1.15881,2.43996,1.4374
3.5,0.861585,2.25104,1.82304,1.15132,2.4294,1.4385
3.51,0.860148,2.25779,1.81444,1.14385,2.41902,1.43953
3.52,0.858669,2.26429,1.80585,1.13639,2.40885,1.44061
3.53,0.857095,2.27192,1.79728,1.12894,2.39803,1.44163
3.54,0.855415,2.2788,1.78872,1.12145,2.38764,1.4427
3.55,0.853578,2.28611,1.78019,1.11401,2.37705,1.44373
3.56,0.851984,2.2934,1.77167,1.1066,2.36654,1.44477
3.57,0.850368,2.30077,1.76316,1.09923,2.35603,1.4458
3.58,0.848859,2.3081,1.75467,1.09187,2.34555,1.44681
3.59,0.847202,2.31595,1.7462,1.08454,2.33488,1.44785
3.6,0.845572,2.32342,1.73775,1.07722,2.32438,1.44884
3.61,0.843802,2.33099,1.72931,1.06992,2.31393,1.44989
3.62,0.842028,2.33857,1.72089,1.0626,2.30339,1.45084
3.63,0.840166,2.34632,1.71248,1.0553,2.29289,1.45189
3.64,0.838408,2.35321,1.7041,1.04803,2.28281,1.45285
3.65,0.83656,2.36168,1.69573,1.0408,2.27201,1.45386
3.66,0.834695,2.36927,1.68738,1.03358,2.26165,1.45482
3.67,0.832932,2.37708,1.67905,1.0264,2.25125,1.45578
3.68,0.831124,2.38505,1.67074,1.01924,2.24081,1.45676
3.69,0.829237,2.39312,1.66244,1.01212,2.23037,1.45771
3.7,0.82734,2.40128,1.65417,1.00499,2.21993,1.45871
3.71,0.82535,2.40955,1.64591,0.997854,2.20941,1.45965
3.72,0.823397,2.4175,1.63768,0.990713,2.19912,1.46066
3.73,0.821477,2.42585,1.62946,0.983636,2.18864,1.46158
3.74,0.819447,2.4341,1.62126,0.976583,2.17833,1.46259
