time,velocity,ratio,centerX,Xmax,Xmin,Ymax
0,0,1,1.75,0.75,2.75,1
0.01,0.018469,0.999999,1.74991,0.749904,2.74993,1.00001
0.02,0.0367853,1.00003,1.74965,0.749662,2.74964,1.00002
0.03,0.0549606,1.00008,1.7492,0.749259,2.74916,1.00004
0.04,0.0729817,1.00015,1.74858,0.748695,2.7485,1.00005
0.05,0.0908496,1.00023,1.74777,0.747971,2.74764,1.00007
0.06,0.108578,1.00033,1.74679,0.747085,2.7466,1.00009
0.07,0.126161,1.00045,1.74562,0.746039,2.74537,1.00011
0.08,0.143159,1.00059,1.74429,0.744846,2.74395,1.00014
0.09,0.160296,1.00076,1.74279,0.743523,2.74236,1.00017
0.1,0.177436,1.00096,1.74111,0.742059,2.74059,1.00023
0.11,0.194256,1.0012,1.73926,0.74045,2.73864,1.0003
0.12,0.211098,1.00146,1.73725,0.738699,2.73653,1.00037
0.13,0.227785,1.00174,1.73507,0.736806,2.73424,1.00045
0.14,0.244108,1.00202,1.73272,0.734771,2.7318,1.00054
0.15,0.259944,1.00234,1.73021,0.732606,2.72918,1.00062
0.16,0.276153,1.0027,1.72754,0.730315,2.72636,1.00072
0.17,0.292202,1.00314,1.72471,0.727896,2.72334,1.00085
0.18,0.308017,1.00363,1.72172,0.725354,2.72012,1.001
0.19,0.323729,1.00416,1.71858,0.722693,2.71672,1.00116
0.2,0.339119,1.00471,1.71527,0.719914,2.71315,1.00131
0.21,0.354523,1.00532,1.71182,0.717019,2.70937,1.00148
0.22,0.369675,1.00605,1.70821,0.714001,2.70535,1.0017
0.23,0.384615,1.00682,1.70445,0.710876,2.70114,1.00192
0.24,0.399456,1.00762,1.70054,0.707647,2.6968,1.00215
0.25,0.413965,1.00847,1.69648,0.704323,2.69225,1.00238
0.26,0.428402,1.00948,1.69228,0.700908,2.68744,1.00269
0.27,0.442627,1.01053,1.68793,0.69738,2.68247,1.00299
0.28,0.45655,1.01161,1.68345,0.693746,2.67733,1.00331
0.29,0.470504,1.01283,1.67882,0.690015,2.67193,1.00367
0.3,0.484195,1.01413,1.67406,0.686191,2.66634,1.00406
0.31,0.497613,1.01544,1.66916,0.682294,2.66065,1.00445
0.32,0.510306,1.01686,1.66413,0.678317,2.65475,1.00488
0.33,0.523264,1.01842,1.65897,0.67426,2.64861,1.00536
0.34,0.536074,1.02004,1.65369,0.670138,2.64229,1.00584
0.35,0.548703,1.0218,1.64827,0.665937,2.63571,1.00635
0.36,0.560964,1.02367,1.64273,0.661652,2.62892,1.00692
0.37,0.573146,1.02564,1.63707,0.657306,2.62191,1.00749
0.38,0.584915,1.02775,1.63129,0.652905,2.61468,1.00811
0.39,0.596239,1.02999,1.62539,0.648438,2.60722,1.00877
0.4,0.607755,1.03232,1.61938,0.643916,2.59956,1.00942
0.41,0.61899,1.03482,1.61326,0.639352,2.59169,1.01015
0.42,0.629916,1.0374,1.60702,0.634724,2.58363,1.0109
0.43,0.640519,1.04011,1.60068,0.630022,2.57533,1.01166
0.44,0.650994,1.04299,1.59423,0.625255,2.5668,1.0125
0.45,0.661089,1.04599,1.58767,0.620446,2.55799,1.01333
0.46,0.670942,1.0492,1.58102,0.615617,2.54893,1.01422
0.47,0.680487,1.05258,1.57427,0.610759,2.53962,1.01514
0.48,0.689867,1.05607,1.56743,0.605865,2.53009,1.01606
0.49,0.698894,1.05976,1.56049,0.600937,2.52034,1.01706
0.5,0.707626,1.06357,1.55347,0.595968,2.51037,1.01805
0.51,0.715861,1.0676,1.54636,0.590974,2.50017,1.01912
0.52,0.724021,1.07179,1.53916,0.585951,2.4897,1.02021
0.53,0.731774,1.07619,1.53189,0.580909,2.47895,1.02132
0.54,0.739148,1.08077,1.52454,0.57585,2.46801,1.02249
0.55,0.7464,1.08549,1.51712,0.57075,2.45682,1.02366
0.56,0.753283,1.09046,1.50963,0.565614,2.4454,1.02491
0.57,0.759768,1.09557,1.50207,0.560458,2.43374,1.02615
0.58,0.765925,1.10093,1.49445,0.555296,2.42184,1.02746
0.59,0.77192,1.10648,1.48676,0.550133,2.40968,1.02878
0.6,0.777524,1.11225,1.47902,0.544963,2.3973,1.03013
0.61,0.782774,1.11826,1.47122,0.539786,2.38465,1.03152
0.62,0.787833,1.12445,1.46338,0.534598,2.37178,1.0329
0.63,0.792556,1.13091,1.45548,0.529411,2.35869,1.03437
0.64,0.796921,1.13753,1.44754,0.524222,2.34539,1.03581
0.65,0.800965,1.14446,1.43955,0.519049,2.33187,1.03735
0.66,0.80474,1.15158,1.43153,0.513894,2.31814,1.03887
0.67,0.808261,1.15896,1.42347,0.508728,2.30419,1.04044
0.68,0.811546,1.16655,1.41537,0.503541,2.29006,1.04203
0.69,0.814439,1.17435,1.40725,0.498348,2.27574,1.04364
0.7,0.817101,1.18241,1.39909,0.493186,2.26126,1.04529
0.71,0.819404,1.1907,1.39092,0.488055,2.24658,1.04694
0.72,0.821465,1.1993,1.38272,0.48295,2.23169,1.04863
0.73,0.823316,1.20809,1.3745,0.477862,2.21666,1.05031
0.74,0.824838,1.21717,1.36626,0.472784,2.20152,1.05208
0.75,0.826082,1.22645,1.35801,0.467725,2.18624,1.05383
0.76,0.826967,1.23601,1.34975,0.462691,2.17084,1.05564
0.77,0.827787,1.2458,1.34148,0.457681,2.15532,1.05746
0.78,0.828311,1.25582,1.3332,0.452698,2.13972,1.0593
0.79,0.828572,1.26611,1.32492,0.447732,2.12401,1.06117
0.8,0.828442,1.27657,1.31664,0.442772,2.10821,1.06303
0.81,0.828364,1.28731,1.30835,0.437827,2.09236,1.06495
0.82,0.828092,1.29821,1.30008,0.432907,2.07645,1.06683
0.83,0.827499,1.30934,1.2918,0.428035,2.06061,1.0688
0.84,0.826627,1.32041,1.28353,0.423199,2.04504,1.07074
0.85,0.825769,1.33148,1.27527,0.4184,2.02974,1.07274
0.86,0.824748,1.34252,1.26702,0.413625,2.01472,1.07475
0.87,0.823492,1.35351,1.25879,0.408877,1.99993,1.07676
0.88,0.822124,1.36452,1.25056,0.404174,1.9854,1.07881
0.89,0.82057,1.37547,1.24235,0.399513,1.97107,1.08082
0.9,0.818952,1.38651,1.23415,0.394889,1.95698,1.08293
0.91,0.817134,1.39752,1.22598,0.390323,1.94308,1.085
0.92,0.81522,1.40859,1.21782,0.385796,1.92938,1.08714
0.93,0.813157,1.41964,1.20968,0.38128,1.91585,1.08926
0.94,0.81086,1.43068,1.20156,0.376779,1.90251,1.09142
0.95,0.808579,1.44176,1.19347,0.372313,1.88934,1.0936
0.96,0.806129,1.45281,1.1854,0.367918,1.87635,1.09574
0.97,0.803554,1.46401,1.17735,0.36358,1.86351,1.09796
0.98,0.800955,1.47519,1.16933,0.359294,1.85081,1.10014
0.99,0.798158,1.48652,1.16134,0.35506,1.83826,1.1024
1,0.795313,1.49782,1.15337,0.350851,1.82585,1.10464
1.01,0.792392,1.50921,1.14543,0.346688,1.81356,1.10691
1.02,0.789415,1.52066,1.13753,0.342585,1.80142,1.1092
1.03,0.786352,1.53213,1.12965,0.338516,1.78937,1.11145
1.04,0.783117,1.54376,1.12181,0.334493,1.77745,1.11379
1.05,0.779876,1.55536,1.114,0.330536,1.7657,1.11609
1.06,0.77657,1.56719,1.10622,0.326637,1.75401,1.11848
1.07,0.773154,1.57905,1.09847,0.322761,1.74242,1.12085
1.08,0.769616,1.59096,1.09076,0.318902,1.73095,1.12325
1.09,0.766165,1.603,1.08308,0.315083,1.71955,1.12567
1.1,0.762623,1.61496,1.07544,0.31131,1.70833,1.12806
1.11,0.758949,1.62723,1.06784,0.307604,1.69713,1.13054
1.12,0.755244,1.63946,1.06027,0.303952,1.68608,1.13297
1.13,0.751473,1.65193,1.05273,0.300344,1.67507,1.13548
1.14,0.747637,1.66447,1.04524,0.296802,1.66418,1.13798
1.15,0.743848,1.67713,1.03779,0.293302,1.65334,1.14049
1.16,0.740004,1.68984,1.03037,0.289835,1.64266,1.14302
1.17,0.736111,1.70269,1.02299,0.286432,1.63198,1.14553
1.18,0.732126,1.71575,1.01565,0.283077,1.62143,1.14814
1.19,0.728152,1.72896,1.00835,0.279774,1.61089,1.15072
1.2,0.724067,1.74219,1.0011,0.27652,1.60053,1.15334
1.21,0.719973,1.75573,0.993879,0.273324,1.59014,1.15598
1.22,0.715838,1.76916,0.986699,0.270177,1.57992,1.15857
1.23,0.711641,1.78296,0.979566,0.267087,1.56972,1.16127
1.24,0.70744,1.79686,0.972473,0.264055,1.55957,1.16393
1.25,0.703208,1.81091,0.96542,0.261056,1.54952,1.16664
1.26,0.698944,1.82515,0.958413,0.258083,1.53949,1.16938
1.27,0.694606,1.83937,0.951447,0.255146,1.52958,1.17208
1.28,0.690281,1.85385,0.944524,0.252251,1.51972,1.17486
1.29,0.685971,1.86844,0.937647,0.249404,1.50993,1.17761
1.3,0.681552,1.88331,0.930809,0.246626,1.50018,1.18042
1.31,0.677164,1.8984,0.924019,0.243904,1.49048,1.18326
1.32,0.67274,1.91353,0.917272,0.241222,1.48088,1.18607
1.33,0.668219,1.92899,0.910567,0.238595,1.47133,1.18897
1.34,0.663769,1.94453,0.903912,0.236022,1.46185,1.19183
1.35,0.65931,1.96027,0.897297,0.233497,1.45244,1.19473
1.36,0.654712,1.97627,0.890731,0.231021,1.44308,1.19767
1.37,0.650177,1.99239,0.884209,0.228578,1.43375,1.20059
1.38,0.645588,2.00876,0.87773,0.226177,1.42451,1.20358
1.39,0.640999,2.0253,0.871302,0.223834,1.41531,1.20655
1.4,0.636454,2.04202,0.864914,0.221543,1.40617,1.20952
1.41,0.631782,2.05896,0.858576,0.219294,1.39715,1.21257
1.42,0.627207,2.07616,0.852284,0.217089,1.3881,1.2156
1.43,0.62244,2.09357,0.846037,0.21493,1.37913,1.21867
1.44,0.617851,2.11109,0.839839,0.212814,1.37028,1.22175
1.45,0.613243,2.12891,0.833682,0.21074,1.36138,1.22481
1.46,0.608488,2.147,0.827578,0.20871,1.35259,1.22796
1.47,0.603898,2.16524,0.821515,0.206732,1.34388,1.2311
1.48,0.599177,2.18364,0.815504,0.204801,1.33522,1.23422
1.49,0.59449,2.20252,0.809537,0.202915,1.32656,1.23742
1.5,0.589802,2.22139,0.803618,0.201059,1.31803,1.24061
1.51,0.585111,2.2405,0.797746,0.199228,1.30952,1.24381
1.52,0.580452,2.26006,0.791918,0.197427,1.30102,1.24709
1.53,0.575748,2.27961,0.786141,0.195659,1.29264,1.25034
1.54,0.571086,2.29937,0.780406,0.193923,1.28431,1.25359
1.55,0.566292,2.31942,0.774723,0.192223,1.27604,1.25691
1.56,0.56175,2.33974,0.769081,0.19056,1.26778,1.2602
1.57,0.557117,2.36014,0.763492,0.188937,1.25967,1.26354
1.58,0.552431,2.381,0.757943,0.187353,1.25153,1.2669
1.59,0.547781,2.40198,0.752447,0.18582,1.24347,1.27023
1.6,0.543001,2.42337,0.746991,0.18433,1.23543,1.2736
1.61,0.538309,2.44488,0.741589,0.182871,1.22753,1.27703
1.62,0.533603,2.46669,0.736228,0.181449,1.21962,1.28042
1.63,0.528961,2.4887,0.730919,0.18006,1.21179,1.28383
1.64,0.524217,2.51101,0.725651,0.178705,1.20402,1.28729
1.65,0.519663,2.53345,0.720436,0.17739,1.19633,1.29072
1.66,0.515,2.55637,0.715261,0.176104,1.18863,1.29419
1.67,0.510427,2.57951,0.710138,0.174852,1.18101,1.29769
1.68,0.505826,2.60283,0.705055,0.173642,1.17343,1.30115
1.69,0.501206,2.62636,0.700025,0.172462,1.16597,1.30465
1.7,0.496584,2.65036,0.695035,0.171314,1.15851,1.30821
1.71,0.491991,2.67444,0.690096,0.170199,1.15114,1.31174
1.72,0.48742,2.69881,0.685197,0.169108,1.14381,1.31526
1.73,0.482906,2.72334,0.680349,0.168041,1.13659,1.31885
1.74,0.478418,2.74824,0.675542,0.167006,1.12936,1.32239
1.75,0.473902,2.77335,0.670782,0.165999,1.12221,1.32595
1.76,0.469311,2.7989,0.666067,0.165015,1.11507,1.32956
1.77,0.464875,2.82439,0.661396,0.164056,1.10807,1.33312
1.78,0.460403,2.85018,0.656771,0.163126,1.10109,1.33669
1.79,0.455994,2.87642,0.652187,0.162223,1.09417,1.34034
1.8,0.451403,2.90273,0.647654,0.161343,1.08733,1.34394
1.81,0.447145,2.92924,0.643158,0.160485,1.08051,1.34749
1.82,0.442727,2.95606,0.638714,0.159652,1.07381,1.35115
1.83,0.438357,2.98321,0.634307,0.158845,1.0671,1.35477
1.84,0.433875,3.01039,0.629949,0.158062,1.06049,1.35833
1.85,0.429616,3.03812,0.625633,0.1573,1.0539,1.36198
1.86,0.425353,3.06603,0.621357,0.156559,1.04735,1.3656
1.87,0.421047,3.09389,0.617131,0.155841,1.04091,1.36916
1.88,0.416794,3.12217,0.612939,0.155116,1.03453,1.37283
1.89,0.412502,3.15036,0.608796,0.154389,1.02823,1.37645
1.9,0.408325,3.17871,0.604691,0.153662,1.02194,1.38
1.91,0.404142,3.20738,0.600627,0.152942,1.01572,1.38364
1.92,0.399949,3.23622,0.59661,0.152225,1.00955,1.38725
1.93,0.395847,3.26498,0.592628,0.151513,1.00346,1.39079
1.94,0.391705,3.29386,0.588692,0.150803,0.997449,1.39437
1.95,0.387589,3.32316,0.584795,0.150096,0.991445,1.39797
1.96,0.383499,3.35233,0.580937,0.149389,0.985521,1.4015
1.97,0.379419,3.38166,0.577126,0.148681,0.979654,1.40503
1.98,0.375381,3.41125,0.57335,0.147976,0.973832,1.4086
1.99,0.371323,3.44056,0.569615,0.147276,0.968124,1.41209
2,0.367301,3.47009,0.565925,0.146579,0.962445,1.41556
2.01,0.363317,3.49988,0.562269,0.145882,0.956833,1.41911
2.02,0.359374,3.52949,0.558658,0.145186,0.951295,1.42258
2.03,0.355441,3.55913,0.555086,0.14449,0.945774,1.42594
2.04,0.35149,3.58915,0.551548,0.143794,0.940337,1.42946
2.05,0.347577,3.61906,0.548057,0.1431,0.934959,1.43289
2.06,0.343705,3.64898,0.544602,0.142409,0.929606,1.43623
2.07,0.339792,3.67918,0.541182,0.141723,0.924324,1.43966
2.08,0.335939,3.70929,0.537809,0.14104,0.919102,1.44303
2.09,0.332087,3.73923,0.534471,0.140358,0.91394,1.4463
2.1,0.328223,3.76906,0.531166,0.139672,0.908906,1.44964
2.11,0.324416,3.79902,0.527906,0.138986,0.903909,1.45298
2.12,0.320655,3.8289,0.524681,0.138305,0.898939,1.4562
2.13,0.316913,3.85858,0.521489,0.137619,0.894065,1.4594
2.14,0.313133,3.88853,0.518339,0.136937,0.889239,1.46267
2.15,0.309423,3.91844,0.515227,0.136262,0.884438,1.46584
2.16,0.305692,3.94803,0.512148,0.135586,0.87972,1.46893
2.17,0.302042,3.97782,0.509106,0.134914,0.875076,1.47212
2.18,0.29833,4.00752,0.506107,0.134251,0.870478,1.47522
2.19,0.294645,4.03686,0.50314,0.133586,0.865947,1.47822
2.2,0.290943,4.06637,0.500208,0.132929,0.861489,1.4813
2.21,0.287228,4.09582,0.497319,0.132278,0.857081,1.48433
2.22,0.283572,4.12486,0.494465,0.131623,0.85273,1.48723
2.23,0.279914,4.15382,0.491643,0.13098,0.848454,1.49013
2.24,0.276285,4.18285,0.48886,0.130334,0.844248,1.4931
2.25,0.272683,4.21161,0.486119,0.129699,0.840096,1.49596
2.26,0.269112,4.23997,0.483409,0.129062,0.836004,1.49871
2.27,0.265472,4.26848,0.480733,0.128424,0.831986,1.50157
2.28,0.261864,4.2966,0.478095,0.127798,0.828039,1.50433
2.29,0.258222,4.32435,0.475498,0.127172,0.824149,1.50698
2.3,0.25459,4.35212,0.472934,0.126555,0.820313,1.50966
2.31,0.250962,4.37971,0.470403,0.125927,0.816547,1.51236
2.32,0.247323,4.40693,0.467911,0.125309,0.812845,1.51496
2.33,0.243749,4.43366,0.465461,0.124693,0.809199,1.51743
2.34,0.240123,4.46059,0.463042,0.124096,0.805617,1.51999
2.35,0.236504,4.48707,0.460654,0.123496,0.80211,1.52249
2.36,0.232892,4.51292,0.458303,0.122895,0.798678,1.52488
2.37,0.229286,4.53852,0.455994,0.122301,0.795301,1.52721
2.38,0.225678,4.56412,0.453719,0.121687,0.791978,1.52964
2.39,0.222054,4.58922,0.451478,0.121087,0.788726,1.53197
2.4,0.218399,4.61364,0.449271,0.120484,0.785548,1.53418
2.41,0.214812,4.63767,0.447101,0.119874,0.782428,1.53635
2.42,0.211215,4.6617,0.444972,0.119268,0.779371,1.5386
2.43,0.207633,4.68501,0.442877,0.118655,0.776382,1.54073
2.44,0.204018,4.70797,0.440816,0.118062,0.773445,1.54276
2.45,0.200387,4.73044,0.438789,0.117454,0.770587,1.5448
2.46,0.19675,4.75257,0.436799,0.116837,0.76781,1.5469
2.47,0.193126,4.77398,0.434848,0.11623,0.765095,1.54884
2.48,0.189492,4.79486,0.432937,0.115614,0.762425,1.55068
2.49,0.185902,4.81538,0.431059,0.11501,0.759814,1.55249
2.5,0.18228,4.83564,0.429215,0.114396,0.757272,1.55436
2.51,0.178651,4.85502,0.427406,0.11377,0.754805,1.55612
2.52,0.175012,4.87352,0.425634,0.113147,0.752426,1.55777
2.53,0.17134,4.89127,0.423901,0.112515,0.750113,1.55933
2.54,0.1677,4.90914,0.422208,0.111881,0.747846,1.56102
2.55,0.164038,4.9265,0.42055,0.11125,0.745632,1.56264
2.56,0.160399,4.94272,0.418927,0.110594,0.743487,1.56411
2.57,0.156738,4.95808,0.41734,0.109937,0.741428,1.56549
2.58,0.153119,4.97272,0.415789,0.10928,0.739459,1.56685
2.59,0.149454,4.9868,0.414273,0.108598,0.737559,1.56825
2.6,0.145808,5.00025,0.412794,0.107917,0.73571,1.56956
2.61,0.142172,5.01297,0.411353,0.107208,0.733896,1.57078
2.62,0.138509,5.02494,0.409949,0.106496,0.732144,1.57192
2.63,0.134853,5.03655,0.408581,0.105771,0.73043,1.57306
2.64,0.131209,5.04765,0.407248,0.105037,0.728781,1.57422
2.65,0.127541,5.05788,0.40595,0.104301,0.727204,1.57528
2.66,0.123907,5.06705,0.404689,0.103538,0.725696,1.57625
2.67,0.120348,5.07549,0.403463,0.10278,0.724251,1.57714
2.68,0.116718,5.08306,0.402273,0.101998,0.722865,1.57795
2.69,0.113079,5.09024,0.40112,0.101223,0.721565,1.57884
2.7,0.109476,5.09651,0.400004,0.10043,0.72032,1.57964
2.71,0.105873,5.10221,0.398925,0.0996401,0.719119,1.58036
2.72,0.102298,5.10709,0.397883,0.0988346,0.717974,1.581
2.73,0.0987165,5.11126,0.396878,0.0980306,0.716883,1.58156
2.74,0.095194,5.11457,0.395908,0.0972147,0.715852,1.58203
2.75,0.0916312,5.11761,0.394973,0.0964089,0.714885,1.58256
2.76,0.0881239,5.11985,0.394073,0.0955814,0.71398,1.58305
2.77,0.0846015,5.12153,0.393209,0.0947779,0.713138,1.58348
2.78,0.0811056,5.12202,0.39238,0.09394,0.712378,1.58383
2.79,0.0776254,5.12193,0.391585,0.093119,0.711675,1.5841
2.8,0.0741489,5.12103,0.390823,0.0922863,0.711027,1.58429
2.81,0.0706855,5.1192,0.390096,0.0914227,0.710434,1.58442
2.82,0.0672746,5.11683,0.389402,0.0905689,0.709919,1.58455
2.83,0.063871,5.1141,0.388743,0.0897271,0.709454,1.58467
2.84,0.0604822,5.11054,0.388117,0.0888583,0.709037,1.58472
2.85,0.057112,5.1062,0.387526,0.0879939,0.708691,1.5847
2.86,0.0537674,5.10138,0.386968,0.0871529,0.708401,1.58461
2.87,0.0504588,5.09615,0.386444,0.0863328,0.708158,1.58446
2.88,0.047181,5.08998,0.385952,0.0854779,0.707973,1.58424
2.89,0.043914,5.08329,0.385495,0.0846432,0.707852,1.58397
2.9,0.0406784,5.07618,0.385071,0.0838231,0.707776,1.58365
2.91,0.037472,5.06869,0.384679,0.083019,0.707749,1.58328
2.92,0.0343049,5.06069,0.384319,0.082206,0.707792,1.58295
2.93,0.031172,5.05223,0.383992,0.0813994,0.707878,1.58256
2.94,0.0280776,5.04343,0.383695,0.0806145,0.708008,1.58211
2.95,0.0250102,5.034,0.38343,0.0798393,0.708205,1.5816
2.96,0.0219993,5.02419,0.383196,0.0790799,0.708447,1.58103
2.97,0.0190185,5.01407,0.382991,0.0783415,0.70873,1.58041
2.98,0.0161025,5.00334,0.382816,0.0775996,0.70907,1.57973
2.99,0.0132241,4.99196,0.382669,0.0768369,0.70946,1.57902
3,0.0103915,4.98025,0.38255,0.0760791,0.709889,1.57827
3.01,0.00756153,4.96808,0.38246,0.0753317,0.710365,1.57745
3.02,0.00478916,4.95545,0.382397,0.0745928,0.710896,1.57658
3.03,0.0020626,4.94252,0.382362,0.0738694,0.711464,1.57566
3.04,-0.000621664,4.92928,0.382353,0.0731602,0.712073,1.57469
3.05,-0.00325381,4.91568,0.382371,0.0724688,0.712739,1.57368
3.06,-0.00585267,4.90185,0.382415,0.0717896,0.713438,1.57263
3.07,-0.00841352,4.88777,0.382484,0.0711211,0.714175,1.57155
3.08,-0.0109257,4.8732,0.382578,0.0704489,0.714966,1.57043
3.09,-0.0133941,4.85845,0.382697,0.0697844,0.715791,1.5693
3.1,-0.0158433,4.84356,0.38284,0.0691377,0.716652,1.56814
3.11,-0.0182206,4.82833,0.383007,0.0685039,0.717565,1.56694
3.12,-0.0205386,4.81286,0.383196,0.0678767,0.71851,1.5657
3.13,-0.0228126,4.79711,0.38341,0.0672552,0.719495,1.56443
3.14,-0.0250341,4.78106,0.383648,0.0666434,0.720529,1.56314
3.15,-0.0272315,4.76496,0.38391,0.0660575,0.721595,1.56181
3.16,-0.0293819,4.74875,0.384194,0.0655032,0.722705,1.56044
3.17,-0.0315002,4.73223,0.384499,0.0649602,0.723852,1.55901
3.18,-0.0335981,4.71568,0.384826,0.0644431,0.725025,1.55754
3.19,-0.0356258,4.6988,0.385172,0.0639278,0.726244,1.55605
3.2,-0.0375911,4.68185,0.385539,0.063426,0.72749,1.55452
3.21,-0.0395158,4.66466,0.385925,0.0629289,0.728769,1.55296
3.22,-0.0413988,4.64726,0.386329,0.0624405,0.730088,1.55136
3.23,-0.0432548,4.62956,0.386752,0.061932,0.731431,1.54974
3.24,-0.0450511,4.61166,0.387191,0.0614324,0.732819,1.5481
3.25,-0.0467693,4.59395,0.387647,0.0609733,0.734233,1.54646
3.26,-0.0484488,4.57617,0.388121,0.0605334,0.735688,1.54481
3.27,-0.0501154,4.55782,0.388614,0.0600503,0.737181,1.54312
3.28,-0.051762,4.53936,0.389124,0.0595856,0.738713,1.5414
3.29,-0.0533647,4.5208,0.38965,0.0591397,0.740283,1.53966
3.3,-0.0549474,4.50224,0.390193,0.0587148,0.741886,1.5379
3.31,-0.0565187,4.48363,0.390751,0.0583099,0.743526,1.53613
3.32,-0.0580518,4.46505,0.391324,0.0579193,0.745195,1.53436
3.33,-0.0595474,4.44641,0.39191,0.0575403,0.746902,1.53259
3.34,-0.0609728,4.42771,0.392508,0.057171,0.748635,1.5308
3.35,-0.0623534,4.40895,0.39312,0.0568084,0.750404,1.52902
3.36,-0.0637068,4.39011,0.39375,0.0564571,0.752196,1.52718
3.37,-0.0650365,4.37122,0.394395,0.0561252,0.754021,1.52533
3.38,-0.066338,4.35213,0.395054,0.0557781,0.755869,1.52345
3.39,-0.0676241,4.33295,0.395725,0.0554266,0.75775,1.52157
3.4,-0.0688884,4.31382,0.396408,0.0550908,0.759656,1.51969
3.41,-0.0701254,4.29469,0.397102,0.0547685,0.761591,1.51779
3.42,-0.0713167,4.27569,0.397806,0.0544673,0.763553,1.51591
3.43,-0.0724517,4.25675,0.398519,0.0541863,0.76554,1.51403
3.44,-0.0735379,4.23781,0.399248,0.0539167,0.767559,1.51214
3.45,-0.0746118,4.21884,0.399991,0.0536473,0.769601,1.51025
3.46,-0.0756486,4.1998,0.400745,0.0533869,0.771675,1.50833
3.47,-0.0766544,4.18082,0.401508,0.0531426,0.773769,1.5064
3.48,-0.0776622,4.16154,0.402279,0.0528546,0.775889,1.50447
3.49,-0.0786584,4.14236,0.403058,0.0525929,0.778035,1.50252
3.5,-0.0795969,4.12333,0.403845,0.0523554,0.780202,1.50058
3.51,-0.0804762,4.10438,0.404642,0.0521382,0.782397,1.49863
3.52,-0.0813797,4.08549,0.405454,0.0519361,0.784616,1.49668
3.53,-0.0821781,4.06665,0.406274,0.0517389,0.786856,1.49473
3.54,-0.0829571,4.04782,0.407101,0.0515446,0.789118,1.49278
3.55,-0.0837194,4.02907,0.407934,0.0513688,0.791401,1.49082
