time,velocity,ratio,centerX,Xmax,Xmin,Ymax
0,0,1,6,5,7,1
0.01,0.0197653,1,5.99991,4.99991,6.9999,1
0.02,0.0394325,1.00001,5.99962,4.99962,6.9996,1
0.03,0.0589939,1.00001,5.99913,4.99913,6.99911,1
0.04,0.0784456,1.00002,5.99845,4.99845,6.99841,1
0.05,0.0977928,1.00003,5.99758,4.99758,6.99753,1
0.06,0.117047,1.00003,5.99651,4.99651,6.99645,0.999999
0.07,0.136319,1.00004,5.99525,4.99527,6.99517,0.999998
0.08,0.155323,1.00006,5.9938,4.99383,6.9937,0.999996
0.09,0.174243,1.00008,5.99216,4.99222,6.99204,0.999993
0.1,0.193232,1.00013,5.99033,4.99041,6.9902,1.00002
0.11,0.211994,1.00019,5.98831,4.98842,6.98816,1.00005
0.12,0.23066,1.00025,5.98611,4.98627,6.98592,1.00008
0.13,0.249211,1.00032,5.98372,4.98394,6.9835,1.0001
0.14,0.267698,1.0004,5.98114,4.98143,6.98088,1.00012
0.15,0.28606,1.0005,5.97838,4.97875,6.97805,1.00015
0.16,0.304316,1.00064,5.97543,4.9759,6.97501,1.0002
0.17,0.322471,1.00083,5.97231,4.97288,6.97176,1.00026
0.18,0.340501,1.00103,5.969,4.96971,6.96831,1.00034
0.19,0.358487,1.00127,5.96551,4.96638,6.96466,1.00041
0.2,0.376304,1.00153,5.96184,4.96287,6.96078,1.00048
0.21,0.394005,1.00187,5.958,4.95922,6.95668,1.0006
0.22,0.41157,1.00226,5.95398,4.95544,6.95239,1.00073
0.23,0.429026,1.00265,5.94978,4.9515,6.94791,1.00085
0.24,0.44644,1.0031,5.94541,4.94742,6.94318,1.00098
0.25,0.463649,1.00363,5.94087,4.94318,6.93826,1.00116
0.26,0.480812,1.00419,5.93615,4.93879,6.93314,1.00136
0.27,0.497744,1.00482,5.93127,4.93426,6.92774,1.00155
0.28,0.514525,1.00555,5.92621,4.92961,6.92211,1.00178
0.29,0.531159,1.00632,5.92099,4.92484,6.91635,1.00204
0.3,0.547631,1.00715,5.9156,4.91995,6.91033,1.0023
0.31,0.563972,1.00808,5.91005,4.91491,6.90406,1.00261
0.32,0.580146,1.00909,5.90434,4.90974,6.89755,1.00294
0.33,0.596119,1.01021,5.89846,4.90448,6.89073,1.00327
0.34,0.611975,1.01142,5.89243,4.8991,6.88376,1.00366
0.35,0.627589,1.0127,5.88623,4.89358,6.87652,1.00406
0.36,0.642998,1.01408,5.87989,4.88797,6.86903,1.00447
0.37,0.658031,1.01562,5.87339,4.88227,6.86127,1.00496
0.38,0.672976,1.01719,5.86674,4.87643,6.85331,1.00544
0.39,0.687719,1.01887,5.85994,4.87046,6.84513,1.00596
0.4,0.702326,1.02071,5.853,4.86445,6.83664,1.00652
0.41,0.716637,1.02265,5.84591,4.85835,6.82791,1.00709
0.42,0.730751,1.02475,5.83868,4.85209,6.81887,1.00773
0.43,0.744571,1.02694,5.8313,4.8458,6.8096,1.00835
0.44,0.758156,1.0293,5.8238,4.83939,6.80007,1.00906
0.45,0.771469,1.03175,5.81615,4.83286,6.79023,1.00975
0.46,0.784548,1.03433,5.80838,4.82632,6.78027,1.01051
0.47,0.797351,1.03704,5.80047,4.81963,6.76996,1.01128
0.48,0.809852,1.03989,5.79244,4.81286,6.75941,1.0121
0.49,0.822052,1.04291,5.78429,4.80604,6.74857,1.01295
0.5,0.834025,1.04604,5.77601,4.79909,6.73747,1.01381
0.51,0.845702,1.04936,5.76762,4.79213,6.72613,1.01474
0.52,0.857118,1.05275,5.75911,4.78503,6.71458,1.01567
0.53,0.868254,1.0563,5.75049,4.7779,6.70282,1.01665
0.54,0.879072,1.06,5.74175,4.77067,6.69074,1.01763
0.55,0.889587,1.06388,5.73292,4.76338,6.67841,1.01868
0.56,0.899822,1.06792,5.72397,4.75605,6.6658,1.01973
0.57,0.909658,1.07206,5.71493,4.74858,6.65303,1.02084
0.58,0.919322,1.07633,5.70579,4.74112,6.64009,1.02196
0.59,0.928676,1.08077,5.69655,4.73356,6.6269,1.02313
0.6,0.937532,1.08538,5.68723,4.72599,6.61345,1.02431
0.61,0.946346,1.09012,5.67781,4.7183,6.59982,1.02554
0.62,0.954826,1.09499,5.66831,4.71061,6.58604,1.02678
0.63,0.963014,1.09995,5.65872,4.70282,6.57212,1.02807
0.64,0.970942,1.10509,5.64906,4.69502,6.55799,1.02937
0.65,0.978683,1.11035,5.63931,4.68711,6.54364,1.0307
0.66,0.986042,1.11577,5.62949,4.6792,6.52914,1.03205
0.67,0.993478,1.12125,5.6196,4.6712,6.51451,1.03341
0.68,1.00028,1.12687,5.60963,4.66319,6.49981,1.03482
0.69,1.00686,1.13256,5.5996,4.65508,6.48494,1.03621
0.7,1.0132,1.13844,5.5895,4.64698,6.46998,1.03768
0.71,1.01933,1.14433,5.57934,4.63879,6.4549,1.03912
0.72,1.02523,1.15041,5.56913,4.6306,6.43977,1.04064
0.73,1.03097,1.15647,5.55885,4.62231,6.42456,1.04213
0.74,1.03652,1.16274,5.54851,4.61403,6.40923,1.04368
0.75,1.04184,1.16905,5.53813,4.60569,6.39385,1.04522
0.76,1.04686,1.17544,5.52768,4.59732,6.37842,1.04679
0.77,1.05172,1.18188,5.51719,4.58891,6.363,1.04838
0.78,1.05644,1.18833,5.50666,4.58044,6.34756,1.04996
0.79,1.06096,1.19493,5.49607,4.57196,6.33208,1.05161
0.8,1.06527,1.20149,5.48544,4.5634,6.31661,1.05323
0.81,1.06947,1.20817,5.47477,4.55484,6.30116,1.05493
0.82,1.0735,1.21483,5.46406,4.54621,6.28572,1.05661
0.83,1.07738,1.22159,5.45331,4.53759,6.27028,1.05832
0.84,1.0811,1.2284,5.44252,4.52891,6.25483,1.06006
0.85,1.08468,1.23518,5.4317,4.5202,6.23943,1.06178
0.86,1.08823,1.24206,5.42083,4.51149,6.22406,1.06356
0.87,1.09159,1.24886,5.40994,4.50271,6.20873,1.06529
0.88,1.09477,1.25578,5.39901,4.49391,6.19342,1.0671
0.89,1.09788,1.26269,5.38805,4.48508,6.17813,1.0689
0.9,1.10096,1.26961,5.37706,4.47625,6.16294,1.07072
0.91,1.10399,1.27654,5.36604,4.46738,6.14782,1.07257
0.92,1.10685,1.28341,5.35498,4.45847,6.13275,1.07439
0.93,1.10957,1.29039,5.3439,4.44956,6.11773,1.0763
0.94,1.11221,1.29729,5.3328,4.44059,6.10279,1.07817
0.95,1.11478,1.30415,5.32167,4.4316,6.08795,1.08007
0.96,1.11721,1.31105,5.31051,4.42259,6.07315,1.08198
0.97,1.11964,1.31789,5.29933,4.41354,6.05842,1.08388
0.98,1.12196,1.32484,5.28812,4.40448,6.04372,1.08587
0.99,1.12411,1.33169,5.27689,4.39538,6.02911,1.08781
1,1.12645,1.33855,5.26564,4.38627,6.01458,1.08979
1.01,1.12856,1.34541,5.25437,4.37713,6.00013,1.0918
1.02,1.13074,1.35219,5.24308,4.36794,5.98573,1.09378
1.03,1.13275,1.359,5.23176,4.35876,5.97143,1.09581
1.04,1.13474,1.36577,5.22043,4.34957,5.95721,1.09784
1.05,1.13664,1.37245,5.20907,4.34033,5.94306,1.09984
1.06,1.13848,1.37924,5.1977,4.33109,5.92895,1.10193
1.07,1.14023,1.38599,5.18631,4.32181,5.91487,1.10398
1.08,1.14216,1.39264,5.1749,4.3125,5.90088,1.10603
1.09,1.144,1.39935,5.16347,4.30317,5.88695,1.10813
1.1,1.14579,1.40597,5.15202,4.29381,5.87307,1.1102
1.11,1.14744,1.41254,5.14056,4.28443,5.85926,1.11226
1.12,1.14907,1.41917,5.12908,4.27504,5.84552,1.11438
1.13,1.15069,1.42568,5.11758,4.26562,5.83187,1.11648
1.14,1.15221,1.43214,5.10607,4.25618,5.81827,1.11856
1.15,1.15379,1.43867,5.09455,4.2467,5.80468,1.12071
1.16,1.15531,1.44513,5.083,4.23719,5.79114,1.12283
1.17,1.15681,1.45152,5.07144,4.22769,5.77767,1.12492
1.18,1.15826,1.45788,5.05987,4.21816,5.76427,1.12702
1.19,1.15957,1.4642,5.04828,4.2086,5.75092,1.12914
1.2,1.16093,1.47048,5.03668,4.19904,5.73762,1.13123
1.21,1.16225,1.47666,5.02507,4.18946,5.72438,1.13328
1.22,1.16358,1.48287,5.01344,4.17984,5.71119,1.1354
1.23,1.16499,1.48904,5.0018,4.17022,5.69804,1.13749
1.24,1.16623,1.49514,4.99015,4.16058,5.6849,1.13954
1.25,1.16752,1.50116,4.97848,4.1509,5.67179,1.14155
1.26,1.16893,1.50719,4.9668,4.14122,5.65875,1.14361
1.27,1.17018,1.51319,4.95511,4.13151,5.64575,1.14566
1.28,1.17141,1.51906,4.9434,4.12178,5.6328,1.14767
1.29,1.17256,1.52489,4.93169,4.11205,5.61988,1.14964
1.3,1.17376,1.5307,4.91996,4.10232,5.60698,1.15159
1.31,1.17503,1.53652,4.90822,4.09255,5.5941,1.15358
1.32,1.17617,1.54227,4.89646,4.08277,5.58125,1.15554
1.33,1.17732,1.54789,4.8847,4.07296,5.56846,1.15744
1.34,1.17846,1.55343,4.87292,4.06313,5.55569,1.1593
1.35,1.17959,1.55888,4.86113,4.05328,5.54297,1.16113
1.36,1.18074,1.56435,4.84933,4.04343,5.53032,1.163
1.37,1.18187,1.56978,4.83752,4.03356,5.51767,1.16486
1.38,1.18302,1.57515,4.8257,4.02369,5.50502,1.16666
1.39,1.18416,1.58048,4.81387,4.0138,5.49237,1.16843
1.4,1.18534,1.58574,4.80202,4.00389,5.47973,1.17015
1.41,1.18641,1.59089,4.79016,3.99395,5.46713,1.17183
1.42,1.18754,1.596,4.7783,3.98402,5.45457,1.1735
1.43,1.18866,1.60115,4.76642,3.97408,5.44201,1.17519
1.44,1.18972,1.60627,4.75453,3.96414,5.42944,1.17684
1.45,1.19082,1.61134,4.74263,3.9542,5.4169,1.17845
1.46,1.19191,1.61635,4.73072,3.94424,5.40436,1.18004
1.47,1.19298,1.62128,4.71879,3.93425,5.39185,1.18158
1.48,1.19401,1.62613,4.70686,3.92426,5.37934,1.18308
1.49,1.19511,1.63091,4.69492,3.91425,5.36686,1.18454
1.5,1.19629,1.6357,4.68296,3.90422,5.35441,1.18603
1.51,1.19765,1.64046,4.67099,3.89419,5.34197,1.18752
1.52,1.19877,1.64509,4.65901,3.88415,5.32956,1.18891
1.53,1.19985,1.64969,4.64702,3.8741,5.31714,1.19028
1.54,1.20106,1.65425,4.63502,3.86405,5.30472,1.19161
1.55,1.20216,1.65878,4.62301,3.85401,5.2923,1.19291
1.56,1.20337,1.66326,4.61098,3.84395,5.2799,1.19417
1.57,1.20452,1.66767,4.59894,3.83389,5.26751,1.1954
1.58,1.20568,1.67214,4.58689,3.82382,5.25513,1.19667
1.59,1.2069,1.67656,4.57483,3.81375,5.24276,1.19791
1.6,1.20812,1.6809,4.56276,3.80367,5.2304,1.19909
1.61,1.20931,1.68519,4.55068,3.79358,5.21804,1.20024
1.62,1.21068,1.68943,4.53858,3.78349,5.20569,1.20135
1.63,1.21181,1.69366,4.52647,3.7734,5.19332,1.20243
1.64,1.21308,1.69788,4.51435,3.76331,5.18093,1.20348
1.65,1.21435,1.70201,4.50221,3.7532,5.16855,1.20447
1.66,1.21559,1.70616,4.49006,3.74307,5.15616,1.20548
1.67,1.2169,1.71037,4.4779,3.73297,5.14378,1.2065
1.68,1.2183,1.71456,4.46573,3.72287,5.13139,1.20749
1.69,1.2196,1.71869,4.45354,3.71276,5.11901,1.20845
1.7,1.22085,1.7228,4.44134,3.70266,5.10663,1.20938
1.71,1.22227,1.72686,4.42913,3.69254,5.09425,1.21028
1.72,1.22362,1.73085,4.4169,3.6824,5.08187,1.21114
1.73,1.22497,1.73482,4.40466,3.67226,5.06949,1.21197
1.74,1.22636,1.73876,4.3924,3.66212,5.0571,1.21277
1.75,1.22785,1.74273,4.38013,3.65195,5.04469,1.21359
1.76,1.22927,1.74676,4.36785,3.64179,5.03225,1.2144
1.77,1.23079,1.75074,4.35555,3.63162,5.01982,1.21519
1.78,1.23212,1.75467,4.34324,3.62142,5.00736,1.21594
1.79,1.23352,1.75859,4.33091,3.61122,4.9949,1.21666
1.8,1.23507,1.76246,4.31857,3.60102,4.98244,1.21735
1.81,1.23654,1.76628,4.30622,3.59079,4.96997,1.218
1.82,1.2383,1.77006,4.29384,3.58055,4.95748,1.21863
1.83,1.23982,1.7738,4.28146,3.57026,4.94498,1.21923
1.84,1.2414,1.77754,4.26905,3.55995,4.93248,1.21987
1.85,1.24305,1.78128,4.25663,3.54962,4.91998,1.2205
1.86,1.24401,1.785,4.2442,3.53927,4.90746,1.22111
1.87,1.24569,1.78869,4.23175,3.52889,4.89492,1.2217
1.88,1.24737,1.79236,4.21929,3.51849,4.88235,1.22226
1.89,1.24903,1.79597,4.20681,3.50806,4.86977,1.2228
1.9,1.25071,1.79948,4.19431,3.49758,4.85719,1.2233
1.91,1.25234,1.80296,4.1818,3.48709,4.84461,1.22378
1.92,1.25409,1.80643,4.16927,3.47657,4.83201,1.22426
1.93,1.25585,1.80991,4.15672,3.466,4.81941,1.22477
1.94,1.25771,1.81331,4.14416,3.45539,4.8068,1.22526
1.95,1.25935,1.81664,4.13157,3.44474,4.79419,1.22573
1.96,1.26113,1.81991,4.11897,3.43405,4.78156,1.22617
1.97,1.26295,1.82314,4.10635,3.42331,4.7689,1.2266
1.98,1.26471,1.82628,4.09372,3.41251,4.75621,1.22699
1.99,1.26655,1.82934,4.08106,3.40166,4.74351,1.22736
2,1.2683,1.83237,4.06839,3.39076,4.7308,1.22773
2.01,1.27009,1.83541,4.0557,3.3798,4.71806,1.22813
2.02,1.27195,1.83837,4.04299,3.36877,4.70529,1.22851
2.03,1.27374,1.84129,4.03027,3.35771,4.69251,1.22888
2.04,1.27568,1.84411,4.01752,3.34659,4.67972,1.22922
2.05,1.27757,1.84686,4.00476,3.33541,4.66691,1.22955
2.06,1.27951,1.84952,3.99197,3.32417,4.65407,1.22984
2.07,1.28146,1.85211,3.97917,3.31287,4.6412,1.23011
2.08,1.28346,1.85468,3.96635,3.30149,4.62831,1.23041
2.09,1.28545,1.85716,3.95351,3.29005,4.61542,1.23071
2.1,1.28746,1.85952,3.94064,3.27855,4.60254,1.23099
2.11,1.28951,1.8618,3.92776,3.267,4.58964,1.23125
2.12,1.29153,1.86402,3.91486,3.2554,4.57672,1.23149
2.13,1.29367,1.86613,3.90193,3.2437,4.56377,1.23171
2.14,1.29573,1.86817,3.88899,3.23197,4.55081,1.23191
2.15,1.29789,1.87014,3.87602,3.22018,4.53785,1.23211
2.16,1.29997,1.87211,3.86304,3.20834,4.52488,1.23235
2.17,1.30197,1.874,3.85003,3.19643,4.51188,1.23258
2.18,1.30402,1.87579,3.837,3.18444,4.49885,1.23278
2.19,1.30627,1.87749,3.82395,3.17239,4.4858,1.23297
2.2,1.30837,1.87911,3.81088,3.16027,4.47274,1.23314
2.21,1.31059,1.88064,3.79779,3.14809,4.45966,1.2333
2.22,1.31286,1.88211,3.78467,3.13585,4.44654,1.23343
2.23,1.31499,1.8836,3.77154,3.12354,4.43339,1.23362
2.24,1.31696,1.88503,3.75838,3.11117,4.42022,1.2338
2.25,1.31918,1.88641,3.7452,3.09876,4.40702,1.23396
2.26,1.32138,1.8877,3.732,3.0863,4.39381,1.23409
2.27,1.32366,1.88892,3.71877,3.07377,4.38056,1.23421
2.28,1.32587,1.89007,3.70553,3.06118,4.3673,1.23432
2.29,1.32817,1.89118,3.69226,3.04853,4.354,1.23444
2.3,1.33047,1.8922,3.67897,3.03583,4.34069,1.23453
2.31,1.33269,1.89327,3.66565,3.02308,4.32735,1.23467
2.32,1.33496,1.89431,3.65232,3.01027,4.31397,1.2348
2.33,1.33733,1.89525,3.63896,2.9974,4.30057,1.23491
2.34,1.33958,1.89611,3.62558,2.98449,4.28716,1.235
2.35,1.34185,1.89692,3.61217,2.97153,4.27374,1.23509
2.36,1.34411,1.89771,3.59874,2.95852,4.26027,1.23517
2.37,1.34646,1.89843,3.58529,2.94546,4.2468,1.23525
2.38,1.34869,1.89913,3.57182,2.93235,4.23331,1.23535
2.39,1.35105,1.89983,3.55832,2.9192,4.21981,1.23547
2.4,1.3534,1.90048,3.5448,2.906,4.20628,1.23559
2.41,1.35568,1.9011,3.53126,2.89276,4.19273,1.23569
2.42,1.35801,1.90167,3.51769,2.87947,4.17915,1.23578
2.43,1.36025,1.90218,3.5041,2.86614,4.16555,1.23587
2.44,1.36269,1.9027,3.49049,2.85278,4.15192,1.23594
2.45,1.36492,1.90323,3.47685,2.83938,4.13826,1.23603
2.46,1.36713,1.90379,3.4632,2.82595,4.12456,1.23613
2.47,1.36934,1.90437,3.44952,2.81248,4.11084,1.23628
2.48,1.37165,1.90492,3.43581,2.79897,4.09709,1.23641
2.49,1.37387,1.90545,3.42209,2.78543,4.08332,1.23653
2.5,1.37599,1.90597,3.40834,2.77186,4.06952,1.23665
2.51,1.37829,1.90651,3.39457,2.75826,4.05567,1.23677
2.52,1.38048,1.907,3.38078,2.74461,4.0418,1.23688
2.53,1.38245,1.90752,3.36697,2.73094,4.02791,1.237
2.54,1.38447,1.90804,3.35313,2.71725,4.01399,1.23712
2.55,1.38645,1.9087,3.33928,2.70353,4.00002,1.23731
2.56,1.38847,1.90932,3.32541,2.68977,3.98604,1.23749
2.57,1.39032,1.90992,3.31152,2.67599,3.97204,1.23767
2.58,1.39222,1.91052,3.29761,2.6622,3.95801,1.23784
2.59,1.39416,1.91113,3.28368,2.64837,3.94394,1.23801
2.6,1.39602,1.91177,3.26973,2.63453,3.92984,1.23817
2.61,1.39784,1.91238,3.25576,2.62064,3.91572,1.23834
2.62,1.39964,1.91301,3.24177,2.60674,3.90157,1.23851
2.63,1.40142,1.9137,3.22777,2.59283,3.88738,1.23869
2.64,1.40314,1.91454,3.21375,2.5789,3.87314,1.23893
2.65,1.40483,1.91537,3.19971,2.56495,3.85887,1.23917
2.66,1.40655,1.91622,3.18566,2.55099,3.84458,1.23941
2.67,1.40812,1.9171,3.17159,2.537,3.83025,1.23964
2.68,1.40957,1.91802,3.1575,2.52301,3.81588,1.23987
2.69,1.4111,1.91899,3.1434,2.50901,3.80146,1.2401
2.7,1.41257,1.91998,3.12928,2.49498,3.787,1.24033
2.71,1.41392,1.92102,3.11515,2.48095,3.77252,1.24056
2.72,1.41519,1.92214,3.10101,2.46692,3.75799,1.2408
2.73,1.41666,1.92341,3.08685,2.45288,3.7434,1.2411
2.74,1.41801,1.92472,3.07268,2.43882,3.7288,1.24142
2.75,1.4193,1.92606,3.05849,2.42475,3.71416,1.24174
2.76,1.42047,1.92745,3.0443,2.41068,3.69948,1.24205
2.77,1.42163,1.92889,3.03009,2.3966,3.68476,1.24236
2.78,1.42229,1.93039,3.01587,2.38253,3.67001,1.24266
2.79,1.42358,1.93191,3.00164,2.36843,3.65522,1.24298
2.8,1.42461,1.93349,2.9874,2.35435,3.64039,1.24328
2.81,1.4256,1.93514,2.97315,2.34026,3.62553,1.24359
2.82,1.42662,1.93686,2.95889,2.32619,3.61064,1.2439
2.83,1.42754,1.93871,2.94463,2.31208,3.59571,1.24429
2.84,1.4284,1.94062,2.93035,2.29799,3.58075,1.24468
2.85,1.42934,1.94256,2.91606,2.28389,3.56577,1.24507
2.86,1.43018,1.94454,2.90176,2.2698,3.55076,1.24545
2.87,1.43103,1.94656,2.88746,2.2557,3.53573,1.24583
2.88,1.43175,1.94858,2.87315,2.24159,3.52068,1.24621
2.89,1.43244,1.95065,2.85883,2.2275,3.50562,1.24658
2.9,1.43297,1.95277,2.8445,2.21341,3.49053,1.24696
2.91,1.4336,1.95491,2.83017,2.19933,3.47544,1.24734
2.92,1.43412,1.95701,2.81584,2.18524,3.46035,1.24771
2.93,1.43457,1.95927,2.80149,2.17116,3.44525,1.24815
2.94,1.43497,1.96156,2.78715,2.15707,3.43013,1.24859
2.95,1.43524,1.96388,2.7728,2.143,3.41501,1.24904
2.96,1.43558,1.9662,2.75845,2.12892,3.39988,1.24949
2.97,1.43583,1.96852,2.74409,2.11484,3.38476,1.24993
2.98,1.43605,1.9709,2.72974,2.10078,3.36962,1.25037
2.99,1.43629,1.97326,2.71538,2.08674,3.35448,1.25079
3,1.43632,1.97567,2.70101,2.0727,3.33933,1.25122
3.01,1.43635,1.97807,2.68665,2.05866,3.32419,1.25165
3.02,1.43647,1.98051,2.67229,2.04464,3.30904,1.25208
3.03,1.43657,1.98296,2.65793,2.03063,3.29389,1.2525
3.04,1.43641,1.98552,2.64356,2.01663,3.27876,1.25299
3.05,1.43651,1.98807,2.6292,2.00263,3.26363,1.25348
3.06,1.43653,1.99064,2.61484,1.98865,3.24851,1.25396
3.07,1.43646,1.99325,2.60047,1.97468,3.23338,1.25445
3.08,1.43648,1.99587,2.58611,1.96072,3.21826,1.25494
3.09,1.43638,1.99847,2.57175,1.94677,3.20317,1.25544
3.1,1.4361,2.00104,2.55739,1.93282,3.1881,1.25593
3.11,1.43594,2.00364,2.54303,1.91889,3.17304,1.25643
3.12,1.4359,2.00621,2.52867,1.90496,3.15799,1.25692
3.13,1.43569,2.00877,2.51432,1.89104,3.14296,1.2574
3.14,1.43543,2.01129,2.49996,1.87713,3.12795,1.25789
3.15,1.43514,2.0139,2.48561,1.86322,3.11295,1.25842
3.16,1.43469,2.01654,2.47126,1.84933,3.09796,1.25895
3.17,1.43433,2.01916,2.45692,1.83546,3.08299,1.25948
3.18,1.43392,2.02177,2.44258,1.82159,3.06803,1.26001
3.19,1.43359,2.02435,2.42825,1.80773,3.05309,1.26053
3.2,1.43316,2.02693,2.41391,1.79388,3.03817,1.26104
3.21,1.43268,2.02948,2.39959,1.78004,3.02326,1.26155
3.22,1.43219,2.03203,2.38526,1.76621,3.00838,1.26206
3.23,1.43168,2.03455,2.37095,1.75239,2.99352,1.26256
3.24,1.4311,2.03705,2.35663,1.73858,2.97867,1.26306
3.25,1.43054,2.03954,2.34233,1.7248,2.96386,1.26356
3.26,1.42992,2.04205,2.32803,1.71103,2.94909,1.26409
3.27,1.42928,2.04456,2.31373,1.69727,2.93435,1.26464
3.28,1.42862,2.04702,2.29945,1.68352,2.91964,1.26519
3.29,1.42791,2.04948,2.28517,1.66978,2.90496,1.26575
3.3,1.42716,2.05183,2.27089,1.65605,2.89031,1.26625
3.31,1.42646,2.05417,2.25662,1.64233,2.8757,1.26677
3.32,1.42572,2.05647,2.24237,1.62862,2.86111,1.26728
3.33,1.42489,2.05873,2.22811,1.61492,2.84654,1.26779
3.34,1.42392,2.06098,2.21387,1.60123,2.83201,1.2683
3.35,1.42309,2.06323,2.19964,1.58757,2.81749,1.26881
3.36,1.42225,2.06548,2.18541,1.57393,2.80299,1.26931
3.37,1.42144,2.06772,2.1712,1.56029,2.78851,1.2698
3.38,1.42054,2.06995,2.15699,1.54668,2.77404,1.27029
3.39,1.41953,2.0722,2.14279,1.53308,2.7596,1.2708
3.4,1.41863,2.07453,2.1286,1.5195,2.74516,1.27134
3.41,1.41771,2.07686,2.11442,1.50594,2.73074,1.27187
3.42,1.41677,2.07916,2.10025,1.4924,2.71634,1.27239
3.43,1.41579,2.08146,2.08609,1.47887,2.70197,1.27291
3.44,1.41476,2.08375,2.07194,1.46537,2.68761,1.27341
3.45,1.41373,2.08603,2.0578,1.45189,2.67326,1.27391
3.46,1.41267,2.08828,2.04367,1.43841,2.65894,1.27439
3.47,1.41151,2.09048,2.02955,1.42496,2.64465,1.27487
3.48,1.41039,2.09263,2.01544,1.41152,2.63039,1.27533
3.49,1.40928,2.09477,2.00134,1.3981,2.61616,1.27578
3.5,1.40811,2.0969,1.98726,1.3847,2.60195,1.27622
3.51,1.40697,2.09898,1.97318,1.37131,2.58776,1.27666
3.52,1.40568,2.10103,1.95912,1.35794,2.57361,1.27707
3.53,1.40443,2.10313,1.94507,1.3446,2.55947,1.27752
3.54,1.40311,2.10527,1.93104,1.33127,2.54534,1.27798
3.55,1.40172,2.10741,1.91701,1.31796,2.53124,1.27844
3.56,1.40035,2.10953,1.903,1.30468,2.51717,1.27889
3.57,1.39889,2.11163,1.88901,1.29142,2.50312,1.27933
3.58,1.39756,2.11371,1.87503,1.27818,2.4891,1.27977
3.59,1.39606,2.11579,1.86106,1.26498,2.47511,1.28019
3.6,1.39468,2.11781,1.84711,1.2518,2.46117,1.28061
3.61,1.39309,2.11979,1.83317,1.23864,2.44726,1.28101
3.62,1.39149,2.12186,1.81925,1.22553,2.43339,1.28145
3.63,1.3899,2.12383,1.80535,1.21245,2.41953,1.28181
3.64,1.38827,2.1258,1.79146,1.1994,2.4057,1.28217
3.65,1.38664,2.12777,1.77758,1.18637,2.39189,1.28254
3.66,1.38494,2.12972,1.76373,1.17335,2.3781,1.28289
3.67,1.38328,2.13173,1.74989,1.16037,2.36434,1.28327
3.68,1.38167,2.13377,1.73606,1.14741,2.35059,1.28366
3.69,1.37994,2.13582,1.72226,1.13448,2.33687,1.28404
3.7,1.37809,2.13781,1.70847,1.12156,2.32318,1.28441
3.71,1.37624,2.13984,1.6947,1.10868,2.3095,1.28479
3.72,1.37426,2.14189,1.68095,1.09583,2.29584,1.28515
3.73,1.37232,2.14397,1.66722,1.08301,2.2822,1.28551
3.74,1.37028,2.14605,1.6535,1.07023,2.26858,1.28585
3.75,1.36825,2.14814,1.63981,1.05747,2.25498,1.2862
3.76,1.36619,2.15027,1.62614,1.04476,2.2414,1.28654
3.77,1.36406,2.1524,1.61249,1.03209,2.22785,1.28688
3.78,1.36201,2.15456,1.59886,1.01946,2.21432,1.2872
3.79,1.35975,2.15674,1.58526,1.00688,2.20082,1.28751
3.8,1.35739,2.15891,1.57167,0.994313,2.18734,1.28782
3.81,1.35509,2.16128,1.55811,0.981826,2.17387,1.28817
