time,velocity,ratio,centerX,Xmax,Xmin,Ymax
0,0,1,21,20,22,1
0.01,0.0198443,0.999982,20.9999,19.9999,21.9999,1
0.02,0.0396181,1,20.9996,19.9996,21.9996,1
0.03,0.0592344,1.00004,20.9991,19.9991,21.9991,1.00001
0.04,0.0787101,1.00008,20.9984,19.9985,21.9984,1.00002
0.05,0.0980572,1.00009,20.9975,19.9976,21.9975,1.00003
0.06,0.11727,1.00012,20.9965,19.9965,21.9964,1.00004
0.07,0.136371,1.00016,20.9952,19.9953,21.9951,1.00004
0.08,0.155379,1.00017,20.9937,19.9939,21.9936,1.00004
0.09,0.174367,1.00018,20.9921,19.9922,21.9919,1.00002
0.1,0.193672,1.00022,20.9903,19.9904,21.9901,1.00004
0.11,0.213161,1.00019,20.9882,19.9884,21.9881,1.00005
0.12,0.232729,1.00015,20.986,19.9861,21.986,1.00009
0.13,0.251941,1.00016,20.9836,19.9837,21.9836,1.00011
0.14,0.270594,1.00021,20.981,19.9811,21.9809,1.00012
0.15,0.289077,1.00031,20.9782,19.9784,21.9779,1.00005
0.16,0.307502,1.00039,20.9752,19.9755,21.9748,1.00004
0.17,0.326247,1.0004,20.972,19.9724,21.9717,1.00006
0.18,0.345124,1.00035,20.9687,19.9689,21.9685,1.00012
0.19,0.3632,1.00029,20.9651,19.9652,21.965,1.00019
0.2,0.381093,1.00038,20.9614,19.9615,21.9611,1.00017
0.21,0.399232,1.00046,20.9575,19.9577,21.9571,1.00016
0.22,0.417491,1.00058,20.9534,19.9539,21.953,1.00012
0.23,0.435196,1.00065,20.9491,19.9498,21.9488,1.00012
0.24,0.452783,1.00064,20.9447,19.9452,21.9443,1.00018
0.25,0.470776,1.00061,20.9401,19.9404,21.9396,1.00024
0.26,0.488544,1.00052,20.9353,19.9355,21.935,1.00027
0.27,0.505808,1.0007,20.9303,19.9308,21.9299,1.00026
0.28,0.523472,1.00087,20.9252,19.9258,21.9245,1.00024
0.29,0.540869,1.00089,20.9199,19.9205,21.9192,1.00022
0.3,0.557976,1.00089,20.9144,19.915,21.9136,1.00021
0.31,0.575331,1.00098,20.9087,19.9094,21.908,1.00032
0.32,0.592437,1.00093,20.9029,19.9035,21.9024,1.00037
0.33,0.609322,1.00092,20.8969,19.8975,21.8964,1.00036
0.34,0.626434,1.00111,20.8907,19.8914,21.8899,1.00037
0.35,0.643129,1.00117,20.8843,19.8851,21.8835,1.00035
0.36,0.659978,1.00132,20.8778,19.8788,21.8768,1.00034
0.37,0.676523,1.00128,20.8711,19.8721,21.8703,1.00036
0.38,0.693271,1.00126,20.8643,19.8651,21.8635,1.00046
0.39,0.709559,1.00139,20.8573,19.8581,21.8563,1.00048
0.4,0.725844,1.00133,20.8501,19.8509,21.8492,1.0005
0.41,0.74231,1.00145,20.8427,19.8437,21.8417,1.00047
0.42,0.758415,1.0016,20.8352,19.8365,21.8342,1.00045
0.43,0.774734,1.00167,20.8276,19.8287,21.8264,1.00051
0.44,0.790609,1.00166,20.8198,19.821,21.8186,1.00049
0.45,0.806743,1.00162,20.8118,19.8127,21.8107,1.00062
0.46,0.822549,1.00174,20.8036,19.8048,21.8026,1.00061
0.47,0.838556,1.0019,20.7953,19.7965,21.794,1.00065
0.48,0.854299,1.0019,20.7869,19.7881,21.7856,1.00062
0.49,0.870121,1.00214,20.7782,19.7796,21.7766,1.00062
0.5,0.885762,1.00212,20.7695,19.7709,21.768,1.00067
0.51,0.901313,1.00217,20.7605,19.762,21.7591,1.0007
0.52,0.916839,1.00218,20.7514,19.7529,21.7501,1.00076
0.53,0.932182,1.00222,20.7422,19.7436,21.7407,1.00076
0.54,0.94773,1.00246,20.7328,19.7344,21.7311,1.00079
0.55,0.963019,1.00243,20.7232,19.7249,21.7216,1.00078
0.56,0.978236,1.0026,20.7135,19.7153,21.7117,1.00079
0.57,0.993444,1.00264,20.7037,19.7055,21.7019,1.00085
0.58,1.0085,1.00265,20.6937,19.6954,21.6919,1.0009
0.59,1.02355,1.00271,20.6835,19.6852,21.6817,1.00093
0.6,1.0385,1.00275,20.6732,19.675,21.6714,1.00097
0.61,1.05335,1.00292,20.6627,19.6647,21.6608,1.00094
0.62,1.06841,1.00304,20.6521,19.6542,21.65,1.00095
0.63,1.08306,1.00307,20.6414,19.6435,21.6394,1.001
0.64,1.09767,1.00315,20.6305,19.6326,21.6283,1.00101
0.65,1.11226,1.00321,20.6194,19.6216,21.6173,1.00108
0.66,1.12684,1.00324,20.6082,19.6103,21.6061,1.00113
0.67,1.14123,1.00339,20.5969,19.5992,21.5947,1.00113
0.68,1.15557,1.00351,20.5854,19.5877,21.5829,1.00111
0.69,1.17,1.00362,20.5738,19.5762,21.5713,1.00116
0.7,1.18435,1.00366,20.562,19.5645,21.5596,1.0012
0.71,1.19845,1.00374,20.5501,19.5527,21.5477,1.00123
0.72,1.21219,1.0038,20.538,19.5406,21.5355,1.00127
0.73,1.22632,1.00385,20.5258,19.5284,21.5233,1.00133
0.74,1.24036,1.00401,20.5135,19.5162,21.5108,1.00132
0.75,1.25423,1.00411,20.501,19.5039,21.4983,1.00132
0.76,1.26808,1.00419,20.4884,19.4913,21.4857,1.00136
0.77,1.28187,1.00422,20.4757,19.4785,21.4729,1.00138
0.78,1.29557,1.00431,20.4628,19.4657,21.46,1.00143
0.79,1.30924,1.00435,20.4498,19.4526,21.4469,1.00148
0.8,1.32298,1.00445,20.4366,19.4396,21.4337,1.00152
0.81,1.33658,1.00457,20.4233,19.4264,21.4203,1.00151
0.82,1.3503,1.0047,20.4099,19.4131,21.4067,1.00151
0.83,1.36379,1.00478,20.3963,19.3995,21.3931,1.00156
0.84,1.37721,1.00486,20.3826,19.3859,21.3794,1.00159
0.85,1.39053,1.00491,20.3688,19.3721,21.3656,1.00165
0.86,1.40387,1.00497,20.3548,19.3581,21.3516,1.00169
0.87,1.41708,1.00511,20.3407,19.3441,21.3373,1.00171
0.88,1.43018,1.00523,20.3264,19.3299,21.323,1.00172
0.89,1.44332,1.00535,20.3121,19.3157,21.3085,1.00174
0.9,1.45633,1.00539,20.2976,19.3013,21.2941,1.00179
0.91,1.46934,1.00553,20.283,19.2867,21.2794,1.00184
0.92,1.48236,1.00562,20.2682,19.272,21.2645,1.00188
0.93,1.49525,1.00569,20.2533,19.2571,21.2496,1.00191
0.94,1.50808,1.0058,20.2383,19.2422,21.2345,1.00192
0.95,1.52082,1.00591,20.2231,19.2272,21.2193,1.00193
0.96,1.53354,1.00597,20.2079,19.2119,21.2039,1.00196
0.97,1.54621,1.00604,20.1925,19.1966,21.1885,1.002
0.98,1.55882,1.00614,20.177,19.1811,21.173,1.00206
0.99,1.57132,1.00623,20.1613,19.1655,21.1573,1.00209
1,1.5839,1.00633,20.1455,19.1498,21.1414,1.00212
1.01,1.59627,1.00645,20.1296,19.134,21.1254,1.00213
1.02,1.60853,1.00659,20.1136,19.1181,21.1093,1.00216
1.03,1.62072,1.00665,20.0975,19.102,21.0931,1.0022
1.04,1.63309,1.00671,20.0812,19.0857,21.0769,1.00224
1.05,1.64514,1.0068,20.0648,19.0694,21.0604,1.00228
1.06,1.65714,1.00692,20.0483,19.053,21.0438,1.00232
1.07,1.66931,1.00704,20.0317,19.0364,21.0271,1.00234
1.08,1.68136,1.00713,20.0149,19.0198,21.0103,1.00235
1.09,1.69355,1.00725,19.998,19.003,20.9933,1.00238
1.1,1.7052,1.00734,19.981,18.9861,20.9763,1.00242
1.11,1.71685,1.00739,19.9639,18.969,20.9592,1.00246
1.12,1.7285,1.00746,19.9467,18.9518,20.9419,1.0025
1.13,1.74014,1.00755,19.9294,18.9345,20.9245,1.00253
1.14,1.75172,1.0077,19.9119,18.9171,20.907,1.00257
1.15,1.7634,1.00781,19.8943,18.8996,20.8893,1.0026
1.16,1.77484,1.0079,19.8766,18.882,20.8715,1.00264
1.17,1.78611,1.008,19.8588,18.8643,20.8537,1.00268
1.18,1.79757,1.00807,19.8409,18.8464,20.8358,1.00272
1.19,1.80883,1.00812,19.8229,18.8284,20.8177,1.00273
1.2,1.8201,1.00824,19.8047,18.8103,20.7994,1.00274
1.21,1.83134,1.0084,19.7865,18.7922,20.7811,1.00278
1.22,1.84249,1.00851,19.7681,18.7739,20.7626,1.00282
1.23,1.85373,1.00857,19.7496,18.7555,20.7441,1.00285
1.24,1.86473,1.00865,19.731,18.7369,20.7255,1.00289
1.25,1.87561,1.00871,19.7123,18.7183,20.7068,1.00292
1.26,1.88659,1.00883,19.6935,18.6996,20.6879,1.00296
1.27,1.89742,1.00902,19.6746,18.6808,20.6689,1.00301
1.28,1.90844,1.00911,19.6556,18.6618,20.6497,1.00304
1.29,1.9191,1.0092,19.6364,18.6427,20.6305,1.00305
1.3,1.92966,1.00921,19.6172,18.6235,20.6113,1.00307
1.31,1.9403,1.00935,19.5978,18.6043,20.592,1.00314
1.32,1.95092,1.00949,19.5784,18.5849,20.5724,1.00319
1.33,1.9615,1.00956,19.5588,18.5654,20.5528,1.00321
1.34,1.97195,1.00962,19.5392,18.5457,20.533,1.0032
1.35,1.98248,1.00973,19.5194,18.5261,20.5132,1.00325
1.36,1.99294,1.0099,19.4995,18.5063,20.4932,1.0033
1.37,2.00318,1.00994,19.4795,18.4864,20.4732,1.00332
1.38,2.01334,1.00997,19.4595,18.4663,20.4532,1.00335
1.39,2.02355,1.01013,19.4393,18.4462,20.4329,1.00341
1.4,2.03364,1.01029,19.419,18.426,20.4125,1.00344
1.41,2.04363,1.01033,19.3986,18.4057,20.3921,1.00344
1.42,2.0537,1.01041,19.3781,18.3853,20.3716,1.00349
1.43,2.0639,1.01057,19.3575,18.3647,20.3508,1.00353
1.44,2.07365,1.01064,19.3368,18.3442,20.3301,1.00355
1.45,2.08352,1.01068,19.3161,18.3234,20.3094,1.00361
1.46,2.0932,1.01084,19.2952,18.3026,20.2883,1.00364
1.47,2.10289,1.01092,19.2742,18.2816,20.2673,1.00365
1.48,2.11271,1.01101,19.2531,18.2607,20.2462,1.0037
1.49,2.12239,1.01116,19.2319,18.2396,20.2249,1.00372
1.5,2.13186,1.0112,19.2107,18.2184,20.2036,1.00374
1.51,2.14142,1.01128,19.1893,18.197,20.1822,1.0038
1.52,2.15074,1.01144,19.1678,18.1757,20.1606,1.00383
1.53,2.16027,1.01147,19.1463,18.1541,20.1391,1.00386
1.54,2.16972,1.01157,19.1246,18.1326,20.1174,1.00389
1.55,2.1791,1.01172,19.1029,18.111,20.0955,1.00389
1.56,2.1883,1.01176,19.0811,18.0891,20.0737,1.00395
1.57,2.19753,1.01186,19.0591,18.0673,20.0517,1.00398
1.58,2.20694,1.01196,19.0371,18.0453,20.0296,1.00401
1.59,2.21628,1.01203,19.015,18.0232,20.0075,1.00406
1.6,2.22529,1.01216,18.9928,18.0012,19.9852,1.00406
1.61,2.2344,1.01226,18.9705,17.9789,19.9628,1.00412
1.62,2.24337,1.01234,18.9481,17.9566,19.9403,1.00413
1.63,2.25257,1.01246,18.9256,17.9342,19.9179,1.00418
1.64,2.26141,1.01255,18.903,17.9116,19.8952,1.00423
1.65,2.27022,1.01267,18.8804,17.8891,19.8725,1.00425
1.66,2.27902,1.01276,18.8576,17.8664,19.8497,1.0043
1.67,2.28765,1.01289,18.8348,17.8437,19.8267,1.00431
1.68,2.29637,1.01298,18.8119,17.8208,19.8038,1.00437
1.69,2.30525,1.01309,18.7889,17.7979,19.7807,1.00436
1.7,2.31387,1.01317,18.7658,17.7749,19.7576,1.00444
1.71,2.32227,1.01325,18.7426,17.7517,19.7343,1.00444
1.72,2.33078,1.01335,18.7193,17.7285,19.7111,1.0045
1.73,2.33919,1.01339,18.696,17.7052,19.6876,1.0045
1.74,2.34776,1.01354,18.6726,17.6819,19.6642,1.00455
1.75,2.35616,1.01359,18.649,17.6584,19.6406,1.00455
1.76,2.3645,1.01373,18.6254,17.6349,19.6169,1.00461
1.77,2.37275,1.01374,18.6017,17.6112,19.5932,1.00462
1.78,2.38103,1.01391,18.578,17.5876,19.5694,1.00468
1.79,2.38918,1.01394,18.5541,17.5637,19.5455,1.00469
1.8,2.39742,1.01411,18.5302,17.5399,19.5214,1.00474
1.81,2.40543,1.01414,18.5062,17.5159,19.4974,1.00476
1.82,2.41346,1.01431,18.4821,17.4919,19.4732,1.00481
1.83,2.42161,1.01437,18.4579,17.4678,19.449,1.00484
1.84,2.42955,1.01451,18.4337,17.4436,19.4247,1.00488
1.85,2.43752,1.01457,18.4093,17.4194,19.4003,1.00491
1.86,2.44526,1.0147,18.3849,17.395,19.3758,1.00494
1.87,2.45314,1.0148,18.3604,17.3706,19.3513,1.00498
1.88,2.46096,1.01486,18.3359,17.3461,19.3266,1.00499
1.89,2.46887,1.01501,18.3112,17.3216,19.3019,1.00504
1.9,2.47667,1.01501,18.2865,17.2968,19.2772,1.00506
1.91,2.48433,1.01518,18.2617,17.2721,19.2523,1.0051
1.92,2.49201,1.01516,18.2368,17.2472,19.2275,1.00513
1.93,2.49956,1.01533,18.2118,17.2224,19.2023,1.00514
1.94,2.50733,1.01538,18.1868,17.1974,19.1773,1.00519
1.95,2.51475,1.0155,18.1617,17.1724,19.1521,1.00521
1.96,2.5223,1.0156,18.1365,17.1473,19.1269,1.00524
1.97,2.52977,1.01562,18.1112,17.122,19.1016,1.00528
1.98,2.53716,1.0158,18.0859,17.0968,19.0761,1.0053
1.99,2.54459,1.01584,18.0605,17.0714,19.0507,1.00535
2,2.55194,1.01598,18.035,17.046,19.0251,1.00538
2.01,2.55919,1.01608,18.0095,17.0205,18.9995,1.0054
2.02,2.56654,1.01614,17.9838,16.9949,18.9739,1.00545
2.03,2.5737,1.01628,17.9581,16.9694,18.9481,1.00548
2.04,2.58082,1.01636,17.9324,16.9436,18.9223,1.0055
2.05,2.58797,1.01641,17.9065,16.9178,18.8965,1.00555
2.06,2.59513,1.01656,17.8806,16.892,18.8704,1.00558
2.07,2.60231,1.01663,17.8546,16.8661,18.8444,1.00559
2.08,2.60943,1.01666,17.8286,16.84,18.8183,1.00563
2.09,2.61636,1.01683,17.8024,16.814,18.7921,1.00566
2.1,2.62338,1.01687,17.7762,16.7878,18.7658,1.00568
2.11,2.63034,1.01691,17.75,16.7616,18.7396,1.00572
2.12,2.63715,1.01707,17.7236,16.7354,18.7131,1.00575
2.13,2.64422,1.01712,17.6972,16.709,18.6867,1.00576
2.14,2.65104,1.01717,17.6707,16.6826,18.6602,1.0058
2.15,2.65774,1.01735,17.6442,16.6562,18.6335,1.00584
2.16,2.66441,1.01741,17.6176,16.6296,18.6068,1.00584
2.17,2.67111,1.01745,17.5909,16.603,18.5802,1.00589
2.18,2.67777,1.0176,17.5642,16.5763,18.5534,1.00594
2.19,2.68449,1.01769,17.5374,16.5495,18.5264,1.00595
2.2,2.69127,1.01773,17.5105,16.5227,18.4996,1.00597
2.21,2.69775,1.01783,17.4835,16.4958,18.4726,1.00602
2.22,2.70418,1.01798,17.4565,16.4689,18.4455,1.00605
2.23,2.71052,1.01804,17.4295,16.4419,18.4184,1.00606
2.24,2.71683,1.01809,17.4023,16.4148,18.3913,1.00611
2.25,2.7232,1.01821,17.3751,16.3876,18.364,1.00615
2.26,2.7295,1.01833,17.3479,16.3605,18.3366,1.00617
2.27,2.73571,1.01837,17.3205,16.3332,18.3092,1.00617
2.28,2.74188,1.01841,17.2931,16.3058,18.2819,1.00622
2.29,2.74829,1.01855,17.2657,16.2785,18.2543,1.00625
2.3,2.7545,1.01866,17.2382,16.251,18.2267,1.00628
2.31,2.7607,1.01869,17.2106,16.2235,18.1991,1.00629
2.32,2.76687,1.01871,17.183,16.1959,18.1715,1.00633
2.33,2.7732,1.01887,17.1553,16.1683,18.1437,1.00637
2.34,2.7793,1.01901,17.1275,16.1406,18.1158,1.00639
2.35,2.78537,1.01904,17.0997,16.1128,18.088,1.00641
2.36,2.79135,1.01904,17.0718,16.0849,18.0601,1.00642
2.37,2.79745,1.01918,17.0439,16.057,18.0321,1.00648
2.38,2.80367,1.01934,17.0158,16.0292,18.004,1.00651
2.39,2.8096,1.01942,16.9878,16.0012,17.9759,1.00654
2.4,2.81544,1.01943,16.9597,15.973,17.9478,1.00656
2.41,2.82127,1.0195,16.9315,15.9449,17.9195,1.00658
2.42,2.82718,1.01968,16.9032,15.9168,17.8912,1.00663
2.43,2.83323,1.0198,16.8749,15.8886,17.8628,1.00667
2.44,2.83904,1.01985,16.8466,15.8602,17.8344,1.00669
2.45,2.84485,1.01987,16.8182,15.8318,17.806,1.00671
2.46,2.85071,1.01996,16.7897,15.8034,17.7774,1.00672
2.47,2.85643,1.02009,16.7611,15.775,17.7489,1.00677
2.48,2.86245,1.02017,16.7325,15.7465,17.7203,1.0068
2.49,2.86814,1.02025,16.7039,15.7178,17.6915,1.00683
2.5,2.87395,1.02029,16.6752,15.6891,17.6628,1.00685
2.51,2.87951,1.02035,16.6464,15.6604,17.634,1.00687
2.52,2.88522,1.02042,16.6176,15.6316,17.6051,1.00688
2.53,2.89076,1.02054,16.5887,15.6029,17.5762,1.00692
2.54,2.89638,1.02062,16.5598,15.574,17.5472,1.00695
2.55,2.90213,1.02072,16.5308,15.5451,17.5181,1.00698
2.56,2.90753,1.02079,16.5017,15.516,17.489,1.00701
2.57,2.91301,1.02085,16.4726,15.4869,17.4599,1.00704
2.58,2.9183,1.02092,16.4435,15.4578,17.4307,1.00706
2.59,2.92363,1.02102,16.4143,15.4287,17.4014,1.00708
2.6,2.92892,1.02112,16.385,15.3996,17.3721,1.00712
2.61,2.93414,1.0212,16.3557,15.3704,17.3428,1.00715
2.62,2.93933,1.02131,16.3263,15.3411,17.3134,1.00717
2.63,2.9445,1.02139,16.2969,15.3116,17.2839,1.00721
2.64,2.94985,1.02145,16.2674,15.2822,17.2543,1.00724
2.65,2.9551,1.0215,16.2379,15.2526,17.2248,1.00727
2.66,2.96023,1.02158,16.2083,15.2231,17.1952,1.00729
2.67,2.96537,1.02164,16.1787,15.1936,17.1655,1.0073
2.68,2.97052,1.02173,16.149,15.164,17.1358,1.00731
2.69,2.97563,1.02179,16.1193,15.1343,17.1061,1.00733
2.7,2.98061,1.02186,16.0895,15.1046,17.0762,1.00736
2.71,2.98581,1.02193,16.0597,15.0748,17.0464,1.00739
2.72,2.99087,1.02201,16.0298,15.045,17.0164,1.00742
2.73,2.99583,1.02207,15.9999,15.015,16.9864,1.00745
2.74,3.00074,1.02214,15.9699,14.9851,16.9564,1.00748
2.75,3.00553,1.02222,15.9399,14.9551,16.9263,1.00751
2.76,3.01041,1.02231,15.9098,14.9251,16.8962,1.00754
2.77,3.01521,1.02241,15.8797,14.895,16.866,1.00756
2.78,3.01992,1.02249,15.8495,14.8649,16.8358,1.00758
2.79,3.02465,1.02259,15.8193,14.8348,16.8055,1.00761
2.8,3.02947,1.02267,15.789,14.8046,16.7752,1.00763
2.81,3.03432,1.02275,15.7587,14.7743,16.7448,1.00765
2.82,3.039,1.02282,15.7283,14.744,16.7144,1.00767
2.83,3.04359,1.02289,15.6979,14.7137,16.684,1.0077
2.84,3.04839,1.02294,15.6674,14.6832,16.6535,1.00773
2.85,3.0531,1.02301,15.6369,14.6528,16.6229,1.00775
2.86,3.05774,1.02306,15.6064,14.6222,16.5924,1.00778
2.87,3.06241,1.02311,15.5758,14.5917,16.5617,1.0078
2.88,3.0671,1.02314,15.5451,14.561,16.5311,1.00782
2.89,3.07175,1.0232,15.5144,14.5304,16.5003,1.00784
2.9,3.07616,1.02326,15.4837,14.4996,16.4696,1.00787
2.91,3.08054,1.02334,15.4529,14.4689,16.4387,1.0079
2.92,3.08492,1.02341,15.4221,14.4381,16.4079,1.00792
2.93,3.08927,1.02351,15.3912,14.4073,16.3769,1.00795
2.94,3.09355,1.02359,15.3603,14.3765,16.3459,1.00798
2.95,3.0978,1.02369,15.3293,14.3456,16.3149,1.008
2.96,3.10216,1.02377,15.2983,14.3146,16.2839,1.00803
2.97,3.10659,1.02387,15.2673,14.2837,16.2528,1.00806
2.98,3.11088,1.02396,15.2362,14.2526,16.2216,1.00808
2.99,3.11511,1.02404,15.2051,14.2216,16.1904,1.00811
3,3.11929,1.0241,15.1739,14.1904,16.1592,1.00813
3.01,3.12364,1.02418,15.1427,14.1593,16.128,1.00815
3.02,3.12785,1.02425,15.1114,14.1281,16.0967,1.00817
3.03,3.13208,1.02431,15.0801,14.0968,16.0653,1.00819
3.04,3.13628,1.02436,15.0488,14.0655,16.034,1.00821
3.05,3.1405,1.02442,15.0174,14.0342,16.0025,1.00823
3.06,3.14451,1.02449,14.986,14.0028,15.9711,1.00825
3.07,3.1485,1.02455,14.9545,13.9714,15.9396,1.00827
3.08,3.15267,1.02461,14.923,13.9399,15.908,1.00829
3.09,3.15666,1.02468,14.8915,13.9084,15.8765,1.00831
3.1,3.16066,1.02474,14.8599,13.8769,15.8448,1.00834
3.11,3.16455,1.02481,14.8283,13.8453,15.8132,1.00836
3.12,3.16867,1.02487,14.7966,13.8137,15.7815,1.00839
3.13,3.17281,1.02495,14.7649,13.782,15.7497,1.00841
3.14,3.17659,1.02501,14.7331,13.7503,15.718,1.00843
3.15,3.18041,1.02508,14.7014,13.7186,15.6861,1.00846
3.16,3.18439,1.02513,14.6695,13.6868,15.6543,1.00848
3.17,3.18823,1.02519,14.6377,13.655,15.6224,1.0085
3.18,3.19224,1.02523,14.6058,13.6231,15.5905,1.00852
3.19,3.19607,1.02527,14.5738,13.5912,15.5585,1.00853
3.2,3.20023,1.02531,14.5419,13.5593,15.5265,1.00854
3.21,3.20416,1.02537,14.5098,13.5273,15.4945,1.00855
3.22,3.20785,1.02542,14.4778,13.4953,15.4624,1.00857
3.23,3.21157,1.02548,14.4457,13.4632,15.4302,1.00859
3.24,3.21528,1.02554,14.4135,13.4311,15.3981,1.00861
3.25,3.21906,1.02563,14.3814,13.399,15.3658,1.00864
3.26,3.22264,1.0257,14.3492,13.3668,15.3336,1.00867
3.27,3.22648,1.02578,14.3169,13.3346,15.3013,1.00869
3.28,3.23029,1.02586,14.2846,13.3024,15.2689,1.00871
3.29,3.23395,1.02596,14.2523,13.2701,15.2365,1.00874
3.3,3.23737,1.02604,14.22,13.2378,15.2041,1.00877
3.31,3.24091,1.02609,14.1876,13.2054,15.1717,1.0088
3.32,3.24437,1.02614,14.1551,13.173,15.1393,1.00881
3.33,3.24801,1.0262,14.1227,13.1406,15.1068,1.00883
3.34,3.25159,1.02623,14.0902,13.1082,15.0743,1.00884
3.35,3.25521,1.02626,14.0577,13.0757,15.0418,1.00885
3.36,3.25899,1.02627,14.0251,13.0432,15.0092,1.00886
3.37,3.26234,1.02634,13.9925,13.0106,14.9766,1.00888
3.38,3.26584,1.02642,13.9598,12.978,14.9439,1.00891
3.39,3.26928,1.02648,13.9272,12.9453,14.9111,1.00893
3.4,3.2727,1.02655,13.8944,12.9127,14.8784,1.00895
3.41,3.27608,1.02664,13.8617,12.88,14.8455,1.00897
3.42,3.27945,1.02671,13.8289,12.8472,14.8127,1.00899
3.43,3.28297,1.02675,13.7961,12.8144,14.7799,1.00901
3.44,3.28644,1.02679,13.7633,12.7816,14.747,1.00903
3.45,3.28969,1.02683,13.7304,12.7488,14.7141,1.00904
3.46,3.29286,1.02685,13.6975,12.7159,14.6813,1.00906
3.47,3.29613,1.02689,13.6645,12.683,14.6483,1.00907
3.48,3.29943,1.02698,13.6316,12.6501,14.6153,1.0091
3.49,3.30268,1.02706,13.5985,12.6171,14.5822,1.00912
3.5,3.30606,1.02715,13.5655,12.5841,14.5491,1.00914
3.51,3.30934,1.02721,13.5324,12.5511,14.5159,1.00917
3.52,3.31252,1.02728,13.4993,12.518,14.4828,1.00919
3.53,3.31553,1.02733,13.4662,12.4849,14.4496,1.00921
3.54,3.31867,1.02734,13.433,12.4517,14.4165,1.00921
3.55,3.32175,1.02733,13.3998,12.4186,14.3833,1.00921
3.56,3.3248,1.0274,13.3666,12.3854,14.35,1.00924
3.57,3.32805,1.02748,13.3333,12.3522,14.3167,1.00927
3.58,3.33126,1.02755,13.3,12.3189,14.2834,1.00928
3.59,3.33458,1.02762,13.2667,12.2856,14.25,1.0093
3.6,3.33742,1.02768,13.2333,12.2523,14.2166,1.00932
3.61,3.34037,1.02772,13.1999,12.2189,14.1831,1.00934
3.62,3.34335,1.02772,13.1665,12.1855,14.1498,1.00934
3.63,3.34642,1.02774,13.1331,12.1521,14.1163,1.00935
3.64,3.34934,1.02782,13.0996,12.1187,14.0828,1.00939
3.65,3.35236,1.02791,13.0661,12.0852,14.0492,1.00941
3.66,3.35543,1.02799,13.0325,12.0517,14.0156,1.00943
3.67,3.35821,1.02807,12.999,12.0182,13.982,1.00945
3.68,3.36109,1.02811,12.9654,11.9846,13.9484,1.00946
3.69,3.36394,1.0281,12.9318,11.951,13.9148,1.00947
3.7,3.36677,1.02811,12.8981,11.9174,13.8812,1.00948
3.71,3.36951,1.02819,12.8644,11.8838,13.8474,1.00952
3.72,3.37253,1.02829,12.8307,11.8501,13.8136,1.00954
3.73,3.37531,1.02837,12.797,11.8164,13.7798,1.00955
3.74,3.3781,1.0284,12.7632,11.7827,13.746,1.00956
3.75,3.38076,1.02843,12.7294,11.7489,13.7122,1.00957
3.76,3.38363,1.02842,12.6956,11.7151,13.6785,1.00958
3.77,3.38639,1.02845,12.6617,11.6813,13.6446,1.0096
3.78,3.38926,1.02854,12.6279,11.6474,13.6106,1.00962
3.79,3.39194,1.02863,12.594,11.6136,13.5766,1.00964
3.8,3.39483,1.02869,12.56,11.5797,13.5427,1.00965
