time,velocity,ratio,centerX,Xmax,Xmin,Ymax
0,0,1,1.75,0.75,2.75,1
0.01,0.0184963,1.00001,1.74991,0.74992,2.7499,1
0.02,0.0369063,1.00004,1.74964,0.749674,2.74962,1.00001
0.03,0.0552216,1.00008,1.74918,0.749263,2.74914,1.00002
0.04,0.0734272,1.00014,1.74854,0.748687,2.74847,1.00003
0.05,0.0915282,1.00022,1.74772,0.747952,2.74762,1.00005
0.06,0.10953,1.00031,1.74672,0.747057,2.74657,1.00007
0.07,0.127431,1.00041,1.74554,0.745987,2.74535,1.0001
0.08,0.144817,1.00056,1.74419,0.7448,2.74392,1.00012
0.09,0.162157,1.00071,1.74265,0.743433,2.74233,1.00016
0.1,0.179745,1.00091,1.74095,0.741925,2.74055,1.00022
0.11,0.197071,1.00113,1.73907,0.740261,2.73857,1.00029
0.12,0.214417,1.00138,1.73702,0.738445,2.73641,1.00037
0.13,0.231474,1.00166,1.73479,0.736482,2.73407,1.00045
0.14,0.248499,1.00196,1.7324,0.734368,2.73153,1.00054
0.15,0.264839,1.00229,1.72983,0.732106,2.72879,1.00063
0.16,0.281562,1.00265,1.72711,0.72969,2.72586,1.00073
0.17,0.298076,1.0031,1.72421,0.72714,2.72271,1.00088
0.18,0.314557,1.00357,1.72115,0.724457,2.71939,1.00102
0.19,0.330859,1.00405,1.71793,0.721616,2.71589,1.00118
0.2,0.347191,1.00457,1.71455,0.718641,2.7122,1.00133
0.21,0.363178,1.00513,1.711,0.715508,2.70831,1.00151
0.22,0.379124,1.00576,1.70729,0.712246,2.70423,1.00173
0.23,0.394945,1.00643,1.70342,0.708831,2.69996,1.00196
0.24,0.4107,1.00716,1.6994,0.705313,2.69544,1.00218
0.25,0.426107,1.00793,1.69522,0.701671,2.69074,1.00243
0.26,0.441536,1.00878,1.69089,0.697904,2.68587,1.00272
0.27,0.45675,1.00967,1.6864,0.694001,2.68079,1.00301
0.28,0.471712,1.01061,1.68176,0.68996,2.6755,1.0033
0.29,0.486544,1.01164,1.67697,0.685807,2.67002,1.00365
0.3,0.501326,1.01272,1.67204,0.681563,2.66435,1.004
0.31,0.515229,1.01384,1.66696,0.677199,2.65848,1.00435
0.32,0.529296,1.01506,1.66174,0.672708,2.6524,1.00475
0.33,0.543349,1.01636,1.65638,0.6681,2.64607,1.00517
0.34,0.557392,1.0177,1.65088,0.663416,2.6396,1.00558
0.35,0.571212,1.01911,1.64524,0.658611,2.63294,1.00603
0.36,0.584924,1.02063,1.63946,0.653677,2.62601,1.00651
0.37,0.598288,1.02217,1.63355,0.648681,2.61894,1.00697
0.38,0.611594,1.02384,1.6275,0.643583,2.61165,1.0075
0.39,0.624273,1.02557,1.62132,0.638387,2.60419,1.00803
0.4,0.637167,1.02734,1.61502,0.633087,2.59654,1.00856
0.41,0.649677,1.02922,1.60859,0.627699,2.58871,1.00916
0.42,0.662052,1.0312,1.60203,0.622215,2.58059,1.00974
0.43,0.674238,1.03323,1.59535,0.61666,2.5724,1.01036
0.44,0.686132,1.03537,1.58855,0.611049,2.56397,1.01099
0.45,0.697967,1.03754,1.58164,0.605313,2.55539,1.01164
0.46,0.70958,1.03983,1.5746,0.599526,2.54662,1.01232
0.47,0.720894,1.04214,1.56745,0.593655,2.53772,1.013
0.48,0.732075,1.04456,1.56019,0.587664,2.52866,1.01374
0.49,0.742994,1.04706,1.55282,0.581666,2.51941,1.01446
0.5,0.753752,1.04964,1.54534,0.575566,2.51002,1.01524
0.51,0.764043,1.05223,1.53775,0.569365,2.50051,1.01601
0.52,0.774315,1.05495,1.53006,0.563143,2.49083,1.01681
0.53,0.784323,1.0577,1.52227,0.556799,2.48103,1.01763
0.54,0.794218,1.06053,1.51438,0.55046,2.47114,1.01847
0.55,0.803751,1.06339,1.50639,0.544013,2.46114,1.01932
0.56,0.813153,1.06638,1.49831,0.537542,2.45093,1.0202
0.57,0.822253,1.06938,1.49014,0.530998,2.44071,1.0211
0.58,0.831087,1.07248,1.48187,0.524399,2.4303,1.02202
0.59,0.839716,1.07564,1.47352,0.517778,2.41984,1.02297
0.6,0.848073,1.07882,1.46508,0.511067,2.40929,1.02392
0.61,0.856205,1.08208,1.45657,0.504345,2.39867,1.0249
0.62,0.864025,1.08539,1.44797,0.497516,2.3879,1.0259
0.63,0.871815,1.08876,1.43929,0.490723,2.37711,1.02691
0.64,0.879432,1.0922,1.43054,0.483836,2.36618,1.02795
0.65,0.886752,1.09567,1.42171,0.476942,2.35521,1.02898
0.66,0.893844,1.09915,1.41281,0.469952,2.34421,1.03005
0.67,0.900547,1.10269,1.40384,0.462981,2.33313,1.0311
0.68,0.907399,1.10632,1.3948,0.455917,2.32193,1.03221
0.69,0.913955,1.10998,1.38569,0.448886,2.3107,1.03329
0.7,0.920319,1.11365,1.37652,0.441753,2.29945,1.03441
0.71,0.926418,1.11741,1.36729,0.434658,2.2881,1.03553
0.72,0.93231,1.12113,1.358,0.427483,2.2768,1.03666
0.73,0.937926,1.12498,1.34865,0.42035,2.2654,1.03782
0.74,0.943284,1.1288,1.33925,0.41314,2.25395,1.03895
0.75,0.94861,1.13275,1.32979,0.40595,2.24243,1.04014
0.76,0.953535,1.13671,1.32028,0.398697,2.23085,1.04131
0.77,0.958318,1.14065,1.31072,0.391493,2.21936,1.04248
0.78,0.962631,1.14474,1.30112,0.384244,2.20772,1.0437
0.79,0.966872,1.14882,1.29147,0.377,2.19606,1.04489
0.8,0.970988,1.15294,1.28179,0.369748,2.18441,1.0461
0.81,0.974789,1.15714,1.27206,0.362496,2.17269,1.04732
0.82,0.978175,1.16129,1.26229,0.355275,2.16103,1.0485
0.83,0.981596,1.16553,1.2525,0.348025,2.14934,1.04974
0.84,0.984762,1.1698,1.24267,0.340808,2.13763,1.05097
0.85,0.987666,1.17401,1.23281,0.333562,2.12596,1.05215
0.86,0.990395,1.17841,1.22292,0.326366,2.11422,1.05341
0.87,0.992875,1.18276,1.213,0.319165,2.10251,1.05464
0.88,0.995159,1.18703,1.20306,0.311964,2.0909,1.05582
0.89,0.997266,1.19152,1.1931,0.30483,2.07919,1.05709
0.9,0.999091,1.19597,1.18312,0.297701,2.0675,1.05832
0.91,1.0007,1.20046,1.17312,0.290628,2.05581,1.05951
0.92,1.00201,1.20504,1.16311,0.283551,2.04411,1.06077
0.93,1.00307,1.20957,1.15309,0.276518,2.03251,1.06199
0.94,1.00398,1.21418,1.14305,0.269561,2.02085,1.06319
0.95,1.00454,1.21889,1.13301,0.26261,2.00918,1.06443
0.96,1.00487,1.22363,1.12297,0.255748,1.99755,1.06566
0.97,1.00494,1.22841,1.11292,0.248897,1.98589,1.06687
0.98,1.0047,1.23324,1.10287,0.242096,1.97425,1.06808
0.99,1.00436,1.23813,1.09283,0.235412,1.96273,1.06932
1,1.00371,1.24303,1.08279,0.228745,1.95121,1.07054
1.01,1.00276,1.24798,1.07275,0.222162,1.93972,1.07174
1.02,1.00132,1.25306,1.06273,0.215679,1.92826,1.07298
1.03,0.999803,1.25817,1.05273,0.209238,1.91683,1.07422
1.04,0.998015,1.26334,1.04274,0.202943,1.90547,1.07543
1.05,0.995894,1.26856,1.03277,0.196688,1.89412,1.07665
1.06,0.993489,1.27387,1.02283,0.190484,1.88279,1.07789
1.07,0.990721,1.27929,1.0129,0.184424,1.87148,1.07911
1.08,0.987698,1.28472,1.00301,0.178456,1.86022,1.0803
1.09,0.98439,1.29029,0.993153,0.17262,1.84903,1.08153
1.1,0.98074,1.29597,0.983327,0.166914,1.83789,1.08277
1.11,0.976794,1.30165,0.973539,0.161263,1.82681,1.08398
1.12,0.972478,1.3075,0.963793,0.155793,1.81575,1.0852
1.13,0.967819,1.31353,0.954092,0.150442,1.80469,1.08646
1.14,0.962829,1.31959,0.944439,0.145189,1.79374,1.0877
1.15,0.957499,1.32573,0.934837,0.140144,1.78288,1.08891
1.16,0.951782,1.33213,0.925291,0.135228,1.77199,1.09019
1.17,0.945722,1.33858,0.915803,0.130404,1.7612,1.09147
1.18,0.939189,1.34516,0.906379,0.125827,1.7505,1.09272
1.19,0.93235,1.35192,0.897021,0.121354,1.73977,1.09399
1.2,0.925097,1.35882,0.887734,0.117005,1.72916,1.09532
1.21,0.917458,1.36588,0.878521,0.11295,1.71868,1.09662
1.22,0.909286,1.37304,0.869387,0.108992,1.7082,1.09789
1.23,0.900731,1.38044,0.860337,0.105177,1.69779,1.09925
1.24,0.891896,1.38804,0.851374,0.101614,1.68747,1.10061
1.25,0.882601,1.39566,0.842501,0.0981639,1.67724,1.10193
1.26,0.872849,1.40354,0.833724,0.0949196,1.66712,1.10332
1.27,0.862691,1.41163,0.825046,0.0919438,1.65713,1.10473
1.28,0.852062,1.4197,0.816472,0.0889927,1.64723,1.10611
1.29,0.841015,1.42805,0.808006,0.0862556,1.63739,1.10755
1.3,0.829557,1.4367,0.799653,0.0837645,1.62763,1.10904
1.31,0.817622,1.44529,0.791417,0.0813075,1.618,1.11048
1.32,0.805159,1.45424,0.783303,0.0791489,1.60844,1.11198
1.33,0.792296,1.46336,0.775316,0.0771318,1.599,1.11352
1.34,0.778927,1.47243,0.767459,0.0751358,1.5897,1.11505
1.35,0.765124,1.48185,0.759738,0.0733874,1.58046,1.11663
1.36,0.750899,1.49136,0.752157,0.0717394,1.57137,1.11824
1.37,0.736192,1.50087,0.744721,0.0701636,1.56241,1.11984
1.38,0.721003,1.51052,0.737434,0.0686298,1.55358,1.12153
1.39,0.705355,1.5201,0.730303,0.0670593,1.54486,1.1232
1.4,0.689309,1.52956,0.723329,0.0654546,1.53632,1.12489
1.41,0.672878,1.53903,0.716519,0.0638438,1.52793,1.12664
1.42,0.656022,1.54844,0.709877,0.0622297,1.51964,1.12835
1.43,0.638714,1.5578,0.703403,0.0605875,1.51155,1.13016
1.44,0.620962,1.56703,0.697102,0.05893,1.50357,1.1319
1.45,0.60284,1.57623,0.690982,0.0572818,1.49581,1.13372
1.46,0.584338,1.5853,0.685044,0.0556597,1.4882,1.1355
1.47,0.565501,1.59439,0.679293,0.054027,1.48075,1.13737
1.48,0.546288,1.60332,0.673733,0.0524019,1.47344,1.13919
1.49,0.526748,1.61221,0.668368,0.0508241,1.46635,1.14107
1.5,0.506995,1.62088,0.663199,0.0492703,1.45939,1.14282
1.51,0.486853,1.62938,0.65823,0.047709,1.45268,1.14462
1.52,0.46657,1.63771,0.653464,0.0462178,1.44613,1.14632
1.53,0.446232,1.64585,0.648899,0.0447415,1.43982,1.14805
1.54,0.425577,1.65377,0.644539,0.0432975,1.43373,1.14973
1.55,0.404959,1.66146,0.640384,0.0418994,1.42782,1.15132
1.56,0.384144,1.66892,0.636437,0.0405597,1.42212,1.15286
1.57,0.363234,1.67617,0.632698,0.0392704,1.41662,1.15434
1.58,0.342496,1.68309,0.629167,0.0380081,1.41134,1.15572
1.59,0.321479,1.6896,0.625846,0.0368171,1.40632,1.15695
1.6,0.300477,1.69587,0.622734,0.0356398,1.40152,1.15817
1.61,0.279602,1.70182,0.619833,0.0345382,1.39699,1.15932
1.62,0.258687,1.70746,0.61714,0.033477,1.39262,1.16034
1.63,0.237816,1.71278,0.614657,0.0325088,1.38852,1.16127
1.64,0.217075,1.71752,0.612381,0.0314856,1.38473,1.16212
1.65,0.19639,1.72189,0.610313,0.0305959,1.3813,1.16288
1.66,0.175874,1.72598,0.608451,0.0297064,1.37805,1.1636
1.67,0.15557,1.72965,0.606793,0.0288201,1.37505,1.16425
1.68,0.135302,1.73296,0.605337,0.0279545,1.37226,1.16482
1.69,0.115278,1.73591,0.604082,0.0271756,1.36976,1.1653
1.7,0.0953798,1.73841,0.603028,0.0264388,1.36752,1.16568
1.71,0.0757792,1.7404,0.60217,0.0257011,1.36556,1.16595
1.72,0.0564489,1.74176,0.601508,0.024995,1.36399,1.16611
1.73,0.0374049,1.74268,0.601037,0.0243578,1.36272,1.16617
1.74,0.0187111,1.74308,0.600755,0.0237435,1.36174,1.16612
1.75,0.000417034,1.74289,0.600658,0.0231641,1.36113,1.16597
1.76,-0.0175032,1.74221,0.600742,0.0226409,1.36078,1.16566
1.77,-0.0350536,1.74111,0.601003,0.0221884,1.36067,1.16522
1.78,-0.0523273,1.73916,0.601438,0.0216224,1.36093,1.16463
1.79,-0.0693051,1.73667,0.602045,0.021147,1.36153,1.1639
1.8,-0.0859158,1.73359,0.60282,0.0207308,1.36248,1.16302
1.81,-0.102162,1.72997,0.603758,0.0203468,1.36383,1.16209
1.82,-0.117985,1.72583,0.604858,0.0199841,1.36549,1.16106
1.83,-0.13348,1.72102,0.606114,0.0196409,1.36748,1.15983
1.84,-0.148587,1.71574,0.607523,0.0193384,1.3698,1.15852
1.85,-0.163392,1.71005,0.609081,0.0191026,1.37244,1.15714
1.86,-0.177878,1.70382,0.610785,0.0188556,1.37542,1.15567
1.87,-0.191988,1.69719,0.612633,0.0186249,1.37869,1.15414
1.88,-0.205744,1.69019,0.61462,0.0184034,1.38222,1.15255
1.89,-0.219212,1.68291,0.616744,0.0182211,1.38598,1.1509
1.9,-0.232234,1.67532,0.619,0.0180392,1.38992,1.14917
1.91,-0.244964,1.66744,0.621384,0.0178898,1.394,1.14729
1.92,-0.257288,1.65934,0.623894,0.0177836,1.39835,1.14541
1.93,-0.269313,1.65096,0.626526,0.017662,1.40288,1.14347
1.94,-0.280961,1.64235,0.629276,0.0175712,1.40759,1.14145
1.95,-0.292239,1.6335,0.63214,0.0174803,1.41249,1.13937
1.96,-0.303172,1.6245,0.635116,0.0174404,1.4176,1.13728
1.97,-0.3138,1.61546,0.638199,0.0173805,1.42279,1.13519
1.98,-0.324032,1.60627,0.641387,0.0173539,1.42809,1.13301
1.99,-0.333893,1.59684,0.644676,0.0173448,1.43356,1.13074
2,-0.343457,1.58724,0.648061,0.0173347,1.4393,1.12851
2.01,-0.352596,1.57748,0.651541,0.0173613,1.44525,1.12623
2.02,-0.361334,1.5676,0.655109,0.0173851,1.45127,1.12388
2.03,-0.369718,1.55757,0.658763,0.0174274,1.45752,1.12152
2.04,-0.377735,1.54745,0.6625,0.0174961,1.46394,1.11915
2.05,-0.385439,1.53713,0.666315,0.0175606,1.47059,1.11675
2.06,-0.392693,1.52663,0.670204,0.0176381,1.4775,1.11433
2.07,-0.399511,1.51608,0.674164,0.017742,1.48461,1.11194
2.08,-0.405957,1.50534,0.678191,0.0178519,1.49196,1.10951
2.09,-0.412006,1.49454,0.68228,0.0179603,1.49946,1.10709
2.1,-0.417691,1.48384,0.686427,0.0180844,1.50709,1.10472
2.11,-0.422993,1.47315,0.69063,0.0182317,1.5148,1.10233
2.12,-0.427932,1.46259,0.694884,0.0183772,1.52251,1.09997
2.13,-0.432491,1.45215,0.699185,0.0185312,1.53026,1.09763
2.14,-0.436641,1.44173,0.70353,0.0186875,1.53808,1.09528
2.15,-0.440379,1.43133,0.707915,0.0188603,1.54605,1.09296
2.16,-0.443758,1.42111,0.712335,0.0190461,1.55402,1.09068
2.17,-0.44673,1.41086,0.716786,0.0192236,1.5621,1.0884
2.18,-0.449308,1.40084,0.721266,0.0194077,1.57019,1.0862
2.19,-0.451469,1.39098,0.725769,0.019599,1.5782,1.08399
2.2,-0.453245,1.38123,0.730292,0.019805,1.58621,1.08178
2.21,-0.454614,1.37167,0.734831,0.0200023,1.59425,1.07967
2.22,-0.455631,1.36225,0.739382,0.0202092,1.6022,1.07753
2.23,-0.456387,1.35299,0.743941,0.0204212,1.6101,1.07541
2.24,-0.456716,1.3439,0.748506,0.0206153,1.61802,1.07338
2.25,-0.456577,1.33491,0.753073,0.0208139,1.62593,1.07134
2.26,-0.45611,1.32613,0.757636,0.0210256,1.63371,1.06931
2.27,-0.455313,1.31754,0.762193,0.0212151,1.64144,1.06736
2.28,-0.454097,1.30905,0.766739,0.021419,1.64915,1.06539
2.29,-0.452601,1.30074,0.771272,0.0216344,1.65679,1.06345
2.3,-0.450625,1.29256,0.775788,0.0218445,1.66443,1.06157
2.31,-0.448337,1.28451,0.780283,0.0220658,1.67205,1.05971
2.32,-0.445785,1.27666,0.784753,0.0222866,1.67956,1.05789
2.33,-0.442851,1.26901,0.789196,0.0224969,1.68702,1.05615
2.34,-0.439574,1.26154,0.793608,0.0227045,1.69433,1.05441
2.35,-0.435939,1.25426,0.797986,0.0229168,1.70156,1.05273
2.36,-0.43196,1.24713,0.802325,0.0231153,1.70876,1.05111
2.37,-0.427755,1.2402,0.806623,0.02333,1.71581,1.04951
2.38,-0.423157,1.23343,0.810878,0.0235251,1.72278,1.04796
2.39,-0.418297,1.2268,0.815085,0.0237358,1.72973,1.04645
2.4,-0.413094,1.22039,0.819242,0.0239163,1.73647,1.04499
2.41,-0.407625,1.21413,0.823345,0.024094,1.74311,1.04356
2.42,-0.40183,1.20798,0.827392,0.0242209,1.74974,1.0422
2.43,-0.395898,1.20206,0.831381,0.024385,1.75618,1.04086
2.44,-0.389588,1.19625,0.835308,0.0244797,1.76248,1.03954
2.45,-0.383038,1.19058,0.839171,0.0245917,1.76878,1.0383
2.46,-0.376105,1.1851,0.842967,0.0246839,1.7749,1.03709
2.47,-0.369036,1.17971,0.846693,0.0247199,1.78088,1.03588
2.48,-0.361728,1.17451,0.850346,0.024784,1.78678,1.03474
2.49,-0.354207,1.1695,0.853926,0.024764,1.79244,1.03365
2.5,-0.346479,1.16463,0.857429,0.024769,1.79799,1.03257
2.51,-0.338515,1.15984,0.860854,0.0247723,1.80347,1.0315
2.52,-0.330333,1.15523,0.864198,0.0246991,1.80876,1.0305
2.53,-0.321978,1.15076,0.867459,0.0246326,1.81395,1.02954
2.54,-0.313411,1.14646,0.870636,0.0245658,1.81898,1.02861
2.55,-0.304662,1.14221,0.873727,0.0244386,1.82389,1.02768
2.56,-0.295752,1.13819,0.876729,0.024321,1.82861,1.02681
2.57,-0.286686,1.13436,0.879641,0.0242236,1.83317,1.026
2.58,-0.277439,1.13057,0.882462,0.0240306,1.83764,1.0252
2.59,-0.268089,1.12695,0.88519,0.0238748,1.84193,1.02443
2.6,-0.258609,1.12347,0.887823,0.0237271,1.84606,1.02367
2.61,-0.249041,1.12013,0.890361,0.0235569,1.85008,1.02297
2.62,-0.239373,1.11694,0.892804,0.0233219,1.85389,1.02232
2.63,-0.22972,1.11388,0.89515,0.0231046,1.85754,1.02167
2.64,-0.21973,1.11094,0.897397,0.0228614,1.86103,1.02104
2.65,-0.209946,1.10816,0.899544,0.0226494,1.86435,1.02045
2.66,-0.199975,1.10547,0.901594,0.0223832,1.86753,1.01987
2.67,-0.189881,1.10285,0.903543,0.0220839,1.8706,1.01932
2.68,-0.179701,1.10044,0.905391,0.0217977,1.87346,1.01883
2.69,-0.169518,1.09815,0.907137,0.0215166,1.87618,1.01835
2.7,-0.159287,1.09596,0.908781,0.0212263,1.87876,1.01789
2.71,-0.148978,1.0939,0.910323,0.0209586,1.88118,1.01745
2.72,-0.13871,1.09195,0.911762,0.0206702,1.88347,1.01705
2.73,-0.128322,1.0901,0.913097,0.02036,1.88561,1.01666
2.74,-0.118012,1.08839,0.914329,0.0200632,1.88758,1.0163
2.75,-0.107639,1.08677,0.915458,0.0197641,1.88941,1.01594
2.76,-0.097342,1.0853,0.916483,0.0194845,1.89109,1.01562
2.77,-0.0871442,1.08396,0.917406,0.0191983,1.89262,1.01536
2.78,-0.0767808,1.08278,0.918226,0.018928,1.89396,1.01512
2.79,-0.0664207,1.08168,0.918942,0.0186499,1.89519,1.0149
2.8,-0.0561415,1.08071,0.919555,0.0183803,1.89626,1.01472
2.81,-0.0458478,1.07988,0.920066,0.0181049,1.8971,1.01454
2.82,-0.0356134,1.07917,0.920473,0.0178524,1.89783,1.01441
2.83,-0.0254224,1.07858,0.920779,0.0175886,1.89841,1.01431
2.84,-0.0154178,1.07813,0.920983,0.0173333,1.89882,1.01424
2.85,-0.00525984,1.07779,0.921087,0.0170757,1.89908,1.0142
2.86,0.00463696,1.07756,0.921091,0.0168302,1.8992,1.01418
