time,velocity,ratio,centerX,Xmax,Xmin,Ymax
0,0,1,1.25,0.25,2.25,1
0.01,0.0166388,1.00001,1.24992,0.249939,2.24993,1.00001
0.02,0.033106,1.00011,1.24967,0.249806,2.24963,1.00002
0.03,0.0492508,1.00026,1.24926,0.249548,2.24915,1.00006
0.04,0.0649947,1.00045,1.24869,0.249149,2.24849,1.00012
0.05,0.0801532,1.00063,1.24796,0.248568,2.24768,1.00018
0.06,0.0950102,1.00083,1.24709,0.247822,2.24668,1.00026
0.07,0.109659,1.00102,1.24606,0.246894,2.24551,1.00032
0.08,0.123823,1.00118,1.2449,0.2458,2.2442,1.00037
0.09,0.137694,1.00129,1.24359,0.24455,2.24276,1.00039
0.1,0.151793,1.00137,1.24214,0.243166,2.24122,1.00039
0.11,0.166491,1.00139,1.24055,0.241627,2.23962,1.00039
0.12,0.180356,1.00131,1.23882,0.239892,2.23805,1.00039
0.13,0.19468,1.00116,1.23694,0.237922,2.23639,1.00039
0.14,0.209136,1.00106,1.23493,0.235848,2.23452,1.00039
0.15,0.222525,1.00097,1.23277,0.233634,2.23241,1.00036
0.16,0.23624,1.00094,1.23047,0.23134,2.22999,1.00026
0.17,0.249681,1.00087,1.22805,0.228928,2.22752,1.00017
0.18,0.263084,1.00082,1.22548,0.226294,2.22497,1.00016
0.19,0.277172,1.00082,1.22279,0.22359,2.22229,1.00017
0.2,0.291339,1.00064,1.21994,0.220462,2.21967,1.00024
0.21,0.304635,1.00064,1.21697,0.217401,2.21675,1.00031
0.22,0.317921,1.00088,1.21385,0.214491,2.21338,1.00032
0.23,0.330384,1.00107,1.21061,0.211547,2.20999,1.00029
0.24,0.343771,1.00134,1.20724,0.208574,2.20644,1.00027
0.25,0.356572,1.00151,1.20374,0.205301,2.20296,1.00034
0.26,0.368654,1.00164,1.20011,0.201637,2.19935,1.0005
0.27,0.380559,1.00177,1.19637,0.197799,2.19541,1.00057
0.28,0.393042,1.00179,1.1925,0.193883,2.19161,1.00064
0.29,0.405206,1.00197,1.18851,0.190076,2.18742,1.00064
0.3,0.416427,1.00221,1.18441,0.186368,2.18321,1.00063
0.31,0.426509,1.00228,1.18019,0.182116,2.17871,1.00058
0.32,0.437793,1.00224,1.17587,0.177761,2.17442,1.00056
0.33,0.44879,1.00203,1.17144,0.173175,2.17036,1.00061
0.34,0.459533,1.00202,1.1669,0.168766,2.16607,1.00067
0.35,0.470509,1.00198,1.16225,0.164089,2.16141,1.00064
0.36,0.481393,1.00195,1.15749,0.159319,2.15659,1.00058
0.37,0.491691,1.002,1.15263,0.154531,2.15155,1.00051
0.38,0.501694,1.00222,1.14766,0.149777,2.1464,1.00052
0.39,0.511993,1.00228,1.14259,0.144788,2.14138,1.00057
0.4,0.521591,1.0022,1.13742,0.139567,2.13642,1.00063
0.41,0.531091,1.00234,1.13216,0.134221,2.131,1.00072
0.42,0.540672,1.00268,1.1268,0.129053,2.12532,1.0008
0.43,0.54971,1.00282,1.12135,0.123913,2.11993,1.00082
0.44,0.558154,1.00305,1.11581,0.118712,2.11425,1.00081
0.45,0.566115,1.00348,1.11019,0.113528,2.10835,1.00088
0.46,0.573351,1.00364,1.10449,0.107989,2.10271,1.00099
0.47,0.580383,1.00384,1.09872,0.102374,2.09684,1.00106
0.48,0.586746,1.00392,1.09289,0.0965743,2.09102,1.00113
0.49,0.593032,1.00411,1.08699,0.0909028,2.08512,1.0012
0.5,0.599156,1.0045,1.08103,0.0853646,2.07884,1.00122
0.51,0.604406,1.00463,1.07501,0.079548,2.07271,1.0012
0.52,0.60921,1.00475,1.06895,0.0736185,2.06655,1.00119
0.53,0.613706,1.005,1.06283,0.0678551,2.06039,1.00125
0.54,0.617357,1.00509,1.05668,0.0619412,2.05445,1.00132
0.55,0.62078,1.00524,1.05049,0.0560491,2.04833,1.00136
0.56,0.623614,1.00548,1.04427,0.050241,2.04208,1.00138
0.57,0.625639,1.00586,1.03802,0.0443977,2.0356,1.00143
0.58,0.626926,1.00643,1.03176,0.03894,2.02903,1.00145
0.59,0.627068,1.0069,1.02549,0.033531,2.02283,1.00151
0.6,0.626071,1.0076,1.01922,0.0281748,2.01635,1.00165
0.61,0.623656,1.0085,1.01297,0.0231746,2.00984,1.00177
0.62,0.61962,1.00952,1.00676,0.0184576,2.00346,1.00195
0.63,0.614183,1.01086,1.00059,0.0142726,1.99695,1.00211
0.64,0.606094,1.01245,0.994486,0.0107172,1.99062,1.00227
0.65,0.595567,1.01443,0.988476,0.0077245,1.98425,1.00252
0.66,0.581813,1.01663,0.982587,0.00513631,1.97783,1.00275
0.67,0.564006,1.01757,0.976855,0.000152239,1.97163,1.00306
0.68,0.543069,1.02102,0.971317,-0,1.96556,1.00344
0.69,0.517722,1.02454,0.966009,4.85867e-09,1.95966,1.00388
0.7,0.487908,1.0282,0.960977,1.75925e-08,1.95378,1.00444
0.71,0.453804,1.03168,0.956263,5.69226e-09,1.94827,1.005
0.72,0.414404,1.03524,0.951916,6.84629e-09,1.94275,1.00561
0.73,0.370905,1.03864,0.947986,4.8597e-09,1.9376,1.00623
0.74,0.324205,1.04172,0.944506,5.33588e-09,1.93307,1.00686
0.75,0.273615,1.04454,0.941512,3.93556e-09,1.92901,1.00747
0.76,0.219465,1.04697,0.939042,4.09771e-09,1.92561,1.00803
0.77,0.162031,1.04892,0.93713,4.29714e-09,1.92296,1.00851
0.78,0.10305,1.05026,0.935803,4.43644e-09,1.92119,1.00887
0.79,0.0434369,1.05105,0.935068,4.57993e-09,1.9201,1.00906
0.8,-0.0159296,1.05118,0.934929,4.68136e-09,1.91985,1.00906
0.81,-0.0739859,1.05068,0.935377,4.80288e-09,1.92043,1.00888
0.82,-0.13016,1.04959,0.936396,4.90922e-09,1.92184,1.00857
0.83,-0.184639,1.04781,0.937971,5.00875e-09,1.92421,1.0081
0.84,-0.23593,1.04556,0.940075,5.10593e-09,1.92732,1.00756
0.85,-0.28252,1.04288,0.942669,5.17165e-09,1.93118,1.007
0.86,-0.323171,1.03997,0.945701,5.19995e-09,1.93531,1.00633
0.87,-0.359061,1.0367,0.949113,5.2054e-09,1.94005,1.00562
0.88,-0.390874,1.03337,0.952865,5.0395e-09,1.94485,1.00488
0.89,-0.416628,1.03022,0.956906,-0,1.9496,1.00426
0.9,-0.436358,1.02681,0.961173,7.00044e-09,1.95497,1.00369
0.91,-0.451445,1.02346,0.965614,-0,1.96025,1.00312
0.92,-0.462565,1.02007,0.970186,1.15346e-08,1.96588,1.00267
0.93,-0.46767,1.01711,0.974841,1.5939e-08,1.97087,1.0023
0.94,-0.466778,1.01387,0.979516,-0,1.97635,1.00188
0.95,-0.461463,1.01066,0.98416,-0,1.98169,1.00141
0.96,-0.452256,1.0076,0.98873,-0,1.98682,1.00096
0.97,-0.439653,1.00497,0.993192,0.00036305,1.99166,1.00059
0.98,-0.423203,1.00188,0.997508,-0,1.9967,1.00023
0.99,-0.403887,0.998909,1.00164,-0,2.00187,0.999843
1,-0.382293,0.996176,1.00558,-0,2.0066,0.999465
1.01,-0.358365,0.993876,1.00928,-0,2.01067,0.999176
1.02,-0.332384,0.993871,1.01273,0.00440211,2.01451,0.998893
1.03,-0.305356,0.99282,1.01592,0.00663509,2.01828,0.998598
1.04,-0.277408,0.992526,1.01884,0.00941138,2.02131,0.998431
1.05,-0.249634,0.992757,1.02147,0.0128258,2.02406,0.998335
1.06,-0.222292,0.993385,1.02383,0.0165888,2.02651,0.998313
1.07,-0.19593,0.994135,1.02592,0.0200384,2.02855,0.998364
1.08,-0.171743,0.995246,1.02776,0.0235246,2.03022,0.998575
1.09,-0.15051,0.996857,1.02936,0.0270661,2.03126,0.998947
1.1,-0.132109,0.998548,1.03077,0.0303513,2.03217,0.999455
1.11,-0.117633,1.00032,1.03202,0.0331486,2.03261,1.00005
1.12,-0.105119,1.00217,1.03313,0.0356402,2.0326,1.00065
1.13,-0.0933188,1.00399,1.03412,0.0376716,2.03221,1.00125
1.14,-0.0827946,1.00553,1.035,0.0393106,2.03182,1.00176
1.15,-0.0733066,1.00671,1.03578,0.0406648,2.03153,1.00212
1.16,-0.064871,1.00741,1.03647,0.0417358,2.03159,1.0023
1.17,-0.0573658,1.0075,1.03709,0.0423816,2.03209,1.00231
1.18,-0.0499572,1.007,1.03762,0.0428415,2.03319,1.00214
1.19,-0.041502,1.00602,1.03808,0.0429763,2.03453,1.00178
1.2,-0.0327332,1.00457,1.03845,0.0428226,2.03639,1.00134
1.21,-0.0234031,1.00303,1.03874,0.0422725,2.03787,1.00083
1.22,-0.0134203,1.00152,1.03892,0.0414833,2.03897,1.00026
1.23,-0.00214984,0.999932,1.039,0.0401755,2.0398,0.999742
1.24,0.0113146,0.99863,1.03896,0.0388873,2.04028,0.999323
