time,velocity,ratio,centerX,Xmax,Xmin,Ymax
0,0,1,7.25,6.25,8.25,1
0.01,0.0198123,1,7.24991,6.2499,8.2499,1
0.02,0.039527,1,7.24961,6.24961,8.2496,1
0.03,0.0591385,1.00001,7.24913,6.24913,8.24911,1
0.04,0.0786359,1.00002,7.24844,6.24845,8.24841,1
0.05,0.0980348,1.00002,7.24757,6.24757,8.24753,1
0.06,0.117333,1.00003,7.2465,6.2465,8.24645,0.999999
0.07,0.136496,1.00004,7.24523,6.24525,8.24517,0.999998
0.08,0.15555,1.00005,7.24378,6.24382,8.2437,0.999994
0.09,0.174505,1.00006,7.24214,6.24219,8.24205,0.999994
0.1,0.193548,1.00012,7.2403,6.24039,8.24018,1.00002
0.11,0.212342,1.00018,7.23828,6.2384,8.23814,1.00005
0.12,0.231046,1.00024,7.23607,6.23623,8.2359,1.00008
0.13,0.24964,1.0003,7.23367,6.23389,8.23347,1.0001
0.14,0.268142,1.00039,7.23109,6.23137,8.23084,1.00012
0.15,0.286541,1.00049,7.22832,6.22868,8.22801,1.00015
0.16,0.304834,1.00063,7.22537,6.22583,8.22495,1.00019
0.17,0.323022,1.00081,7.22224,6.2228,8.2217,1.00026
0.18,0.341095,1.00102,7.21892,6.21962,8.21824,1.00034
0.19,0.359093,1.00126,7.21543,6.21627,8.21457,1.00041
0.2,0.376948,1.00153,7.21175,6.21277,8.21068,1.00048
0.21,0.394686,1.00186,7.2079,6.20913,8.20659,1.00059
0.22,0.41231,1.00223,7.20387,6.20532,8.20231,1.00072
0.23,0.429807,1.00262,7.19966,6.20136,8.19782,1.00084
0.24,0.447169,1.00304,7.19528,6.19726,8.19312,1.00097
0.25,0.464409,1.00356,7.19073,6.19297,8.18818,1.00116
0.26,0.481515,1.00413,7.18601,6.18859,8.18304,1.00135
0.27,0.498478,1.00476,7.18111,6.18405,8.17763,1.00153
0.28,0.515271,1.00546,7.17605,6.1794,8.17205,1.00176
0.29,0.531944,1.0062,7.17082,6.1746,8.1663,1.00202
0.3,0.548449,1.00701,7.16542,6.16965,8.16026,1.00228
0.31,0.564809,1.00794,7.15986,6.1646,8.15397,1.00258
0.32,0.58103,1.00894,7.15414,6.15944,8.14748,1.0029
0.33,0.59708,1.00999,7.14825,6.15413,8.14073,1.00322
0.34,0.612928,1.01115,7.14221,6.14869,8.13377,1.00361
0.35,0.628528,1.01243,7.136,6.14317,8.12653,1.004
0.36,0.643994,1.01376,7.12965,6.13755,8.11911,1.00441
0.37,0.65927,1.01523,7.12313,6.13175,8.11137,1.00488
0.38,0.674441,1.01674,7.11647,6.12589,8.10346,1.00534
0.39,0.689372,1.01837,7.10966,6.11994,8.09537,1.00586
0.4,0.703621,1.0201,7.1027,6.11382,8.08695,1.0064
0.41,0.718037,1.02199,7.09559,6.10767,8.07826,1.00696
0.42,0.732238,1.02398,7.08834,6.1014,8.06938,1.00758
0.43,0.746172,1.02604,7.08096,6.095,8.06017,1.00818
0.44,0.759898,1.02826,7.07343,6.08854,8.05081,1.00886
0.45,0.773362,1.03056,7.06577,6.08196,8.04114,1.00953
0.46,0.786578,1.03298,7.05797,6.07531,8.03133,1.01026
0.47,0.799534,1.03551,7.05005,6.06858,8.02124,1.011
0.48,0.812246,1.03818,7.04199,6.06169,8.01085,1.01179
0.49,0.824715,1.04095,7.03381,6.05478,8.00029,1.01259
0.5,0.83695,1.04387,7.02551,6.04775,7.98943,1.01343
0.51,0.848845,1.04688,7.01708,6.04063,7.97838,1.0143
0.52,0.860524,1.05001,7.00854,6.03346,7.96715,1.01519
0.53,0.872061,1.05323,6.99988,6.02617,7.95569,1.01611
0.54,0.883245,1.05665,6.99111,6.01887,7.94394,1.01707
0.55,0.894175,1.06013,6.98222,6.01144,7.93203,1.01804
0.56,0.904826,1.06381,6.97323,6.00399,7.91986,1.01906
0.57,0.915177,1.06751,6.96413,5.9964,7.90756,1.02009
0.58,0.925294,1.07138,6.95494,5.98883,7.8951,1.02117
0.59,0.9352,1.07531,6.94564,5.98115,7.88246,1.02225
0.6,0.944681,1.07946,6.93624,5.97343,7.86957,1.0234
0.61,0.954004,1.08362,6.92675,5.96562,7.85656,1.02453
0.62,0.963134,1.08798,6.91717,5.95778,7.84337,1.02574
0.63,0.972087,1.09231,6.90749,5.94985,7.83011,1.02691
0.64,0.980661,1.09685,6.89773,5.94189,7.81666,1.02817
0.65,0.988987,1.10144,6.88789,5.93381,7.80301,1.02941
0.66,0.997091,1.10619,6.87796,5.92574,7.78926,1.0307
0.67,1.00495,1.11096,6.86795,5.91757,7.7754,1.03199
0.68,1.0126,1.11578,6.85787,5.90938,7.76153,1.0333
0.69,1.02006,1.12071,6.84771,5.90109,7.74751,1.03465
0.7,1.02725,1.12571,6.83747,5.8928,7.73339,1.03599
0.71,1.03426,1.1308,6.82717,5.88442,7.71921,1.0374
0.72,1.04116,1.13592,6.8168,5.876,7.70498,1.03878
0.73,1.04778,1.14112,6.80635,5.86752,7.69068,1.04023
0.74,1.0542,1.14642,6.79585,5.85901,7.67626,1.04167
0.75,1.06043,1.15176,6.78528,5.85046,7.66181,1.04312
0.76,1.0664,1.15713,6.77465,5.84182,7.64737,1.04463
0.77,1.07235,1.16247,6.76395,5.83318,7.63297,1.0461
0.78,1.07808,1.1679,6.7532,5.82445,7.61852,1.04764
0.79,1.08351,1.17337,6.7424,5.81571,7.60402,1.04917
0.8,1.08896,1.17887,6.73154,5.8069,7.58949,1.05072
0.81,1.09423,1.18439,6.72062,5.79804,7.57502,1.05232
0.82,1.09936,1.18994,6.70966,5.78917,7.56049,1.05389
0.83,1.10433,1.19555,6.69864,5.7802,7.54594,1.05551
0.84,1.10932,1.20119,6.68758,5.77123,7.5314,1.05715
0.85,1.11411,1.20682,6.67646,5.7622,7.51683,1.05876
0.86,1.11879,1.21246,6.6653,5.75311,7.50235,1.06044
0.87,1.12335,1.2181,6.65409,5.744,7.48788,1.06211
0.88,1.12782,1.22371,6.64284,5.73481,7.4734,1.06377
0.89,1.1322,1.2294,6.63154,5.72563,7.45896,1.06548
0.9,1.13642,1.23499,6.6202,5.7164,7.44462,1.06717
0.91,1.1406,1.24057,6.60882,5.7071,7.43029,1.06887
0.92,1.14465,1.24624,6.59739,5.69783,7.41596,1.07061
0.93,1.14861,1.25186,6.58593,5.68846,7.40165,1.07234
0.94,1.15254,1.25747,6.57443,5.67906,7.38736,1.07407
0.95,1.15635,1.26309,6.56288,5.66966,7.37316,1.07584
0.96,1.16008,1.26865,6.5513,5.66016,7.35895,1.07758
0.97,1.16374,1.27422,6.53969,5.65068,7.34475,1.07931
0.98,1.16726,1.27984,6.52803,5.64116,7.33058,1.0811
0.99,1.17092,1.28534,6.51634,5.63157,7.31652,1.08286
1,1.1744,1.2908,6.50462,5.62197,7.30249,1.08462
1.01,1.17779,1.29632,6.49286,5.61234,7.28847,1.0864
1.02,1.18118,1.30181,6.48107,5.60266,7.27448,1.08819
1.03,1.18449,1.30727,6.46924,5.59297,7.2605,1.08996
1.04,1.18772,1.31264,6.45738,5.58323,7.24658,1.09169
1.05,1.19091,1.31807,6.44549,5.57345,7.23266,1.09348
1.06,1.19411,1.32347,6.43357,5.56365,7.21875,1.09524
1.07,1.19724,1.32884,6.42161,5.5538,7.20483,1.09698
1.08,1.2003,1.33409,6.40963,5.54391,7.19102,1.0987
1.09,1.20339,1.33936,6.39761,5.534,7.17724,1.10044
1.1,1.20641,1.3446,6.38557,5.52406,7.16348,1.10219
1.11,1.20939,1.34979,6.37349,5.51404,7.14972,1.10391
1.12,1.21235,1.35491,6.36138,5.50401,7.13599,1.10559
1.13,1.21531,1.35995,6.34925,5.49392,7.12229,1.10725
1.14,1.21825,1.36508,6.33708,5.48382,7.10856,1.10895
1.15,1.22111,1.37011,6.32488,5.47369,7.09489,1.11061
1.16,1.22396,1.37511,6.31266,5.46356,7.08125,1.11225
1.17,1.22671,1.38,6.30041,5.45337,7.06766,1.11386
1.18,1.22956,1.38485,6.28813,5.44318,7.0541,1.11545
1.19,1.2323,1.3897,6.27582,5.43295,7.04054,1.11703
1.2,1.23509,1.39456,6.26349,5.42269,7.02698,1.11863
1.21,1.23778,1.39934,6.25113,5.41238,7.01342,1.1202
1.22,1.24052,1.40405,6.23874,5.40206,6.9999,1.12173
1.23,1.24329,1.40873,6.22632,5.39171,6.98637,1.12323
1.24,1.24601,1.41336,6.21387,5.38132,6.97284,1.1247
1.25,1.24888,1.41791,6.2014,5.37088,6.95932,1.12613
1.26,1.2515,1.42244,6.1889,5.36046,6.94583,1.12755
1.27,1.25418,1.42697,6.17638,5.35001,6.93235,1.12897
1.28,1.25685,1.43142,6.16382,5.33951,6.91886,1.13036
1.29,1.25947,1.43583,6.15124,5.32898,6.90538,1.13172
1.3,1.2621,1.44021,6.13864,5.31845,6.89191,1.13306
1.31,1.26464,1.44448,6.126,5.30785,6.87847,1.13436
1.32,1.26728,1.4487,6.11335,5.29723,6.86502,1.13563
1.33,1.26987,1.4529,6.10066,5.28659,6.85154,1.13686
1.34,1.27269,1.45706,6.08795,5.27592,6.83805,1.13805
1.35,1.27537,1.46124,6.07521,5.26523,6.82455,1.13927
1.36,1.278,1.46537,6.06245,5.25453,6.81107,1.14045
1.37,1.28058,1.46946,6.04966,5.24378,6.79756,1.14161
1.38,1.28319,1.4735,6.03684,5.23303,6.78409,1.14274
1.39,1.28581,1.47746,6.024,5.22225,6.77063,1.14384
1.4,1.28859,1.48137,6.01113,5.21141,6.75716,1.14491
1.41,1.2913,1.48525,5.99823,5.20056,6.74367,1.14595
1.42,1.29393,1.4891,5.98531,5.18968,6.73017,1.14697
1.43,1.29659,1.49291,5.97235,5.17877,6.71664,1.14796
1.44,1.29921,1.49672,5.95938,5.16782,6.70308,1.14892
1.45,1.30193,1.50048,5.94637,5.15683,6.68952,1.14989
1.46,1.30463,1.50426,5.93334,5.14584,6.67594,1.15084
1.47,1.30736,1.50801,5.92028,5.13481,6.66234,1.15176
1.48,1.31004,1.51168,5.9072,5.12373,6.64873,1.15266
1.49,1.31272,1.51526,5.89409,5.1126,6.63514,1.15353
1.5,1.31556,1.51879,5.88095,5.10143,6.62155,1.15437
1.51,1.31826,1.52228,5.86778,5.09023,6.60793,1.15518
1.52,1.32097,1.52573,5.85459,5.07899,6.59429,1.15597
1.53,1.3238,1.52916,5.84137,5.06773,6.58063,1.15672
1.54,1.32661,1.53249,5.82812,5.05641,6.56697,1.15746
1.55,1.32938,1.53581,5.81484,5.04505,6.55329,1.15818
1.56,1.33213,1.53909,5.80153,5.03363,6.53957,1.15889
1.57,1.33492,1.54239,5.7882,5.02219,6.52582,1.15959
1.58,1.33766,1.54564,5.77484,5.0107,6.51208,1.16029
1.59,1.34043,1.5488,5.76145,4.99914,6.49833,1.16097
1.6,1.34324,1.55192,5.74803,4.98753,6.48456,1.16163
1.61,1.34634,1.55497,5.73459,4.97586,6.47077,1.16227
1.62,1.34918,1.55797,5.72111,4.96414,6.45696,1.16289
1.63,1.35206,1.56089,5.70761,4.95236,6.44316,1.16349
1.64,1.35496,1.56375,5.69407,4.94052,6.42933,1.16406
1.65,1.3578,1.56656,5.68051,4.9286,6.41545,1.16462
1.66,1.36072,1.56936,5.66692,4.91663,6.40152,1.16516
1.67,1.36369,1.57208,5.6533,4.9046,6.38757,1.16568
1.68,1.36665,1.57474,5.63965,4.89249,6.37361,1.16619
1.69,1.36961,1.57735,5.62597,4.88032,6.3596,1.16667
1.7,1.37257,1.57992,5.61226,4.86808,6.34557,1.16716
1.71,1.37559,1.58249,5.59852,4.85579,6.33151,1.16765
1.72,1.37855,1.58496,5.58475,4.84343,6.31744,1.16813
1.73,1.38157,1.58737,5.57096,4.831,6.30335,1.16858
1.74,1.38465,1.58971,5.55713,4.81849,6.28923,1.16902
1.75,1.38774,1.59195,5.54327,4.80589,6.27508,1.16945
1.76,1.39075,1.59414,5.52938,4.79322,6.26092,1.16986
1.77,1.3938,1.59625,5.51545,4.78049,6.24675,1.17025
1.78,1.39698,1.59833,5.5015,4.76771,6.23254,1.17064
1.79,1.40003,1.60035,5.48752,4.75485,6.2183,1.17101
1.8,1.4032,1.6023,5.4735,4.74191,6.20402,1.17136
1.81,1.40628,1.6042,5.45946,4.72892,6.18972,1.17171
1.82,1.40955,1.60607,5.44538,4.71585,6.1754,1.17206
1.83,1.41283,1.60783,5.43127,4.70271,6.16103,1.17237
1.84,1.41606,1.6096,5.41713,4.68949,6.14663,1.17271
1.85,1.41926,1.61128,5.40295,4.67619,6.13222,1.17304
1.86,1.42236,1.61294,5.38875,4.66283,6.11778,1.17337
1.87,1.42564,1.61456,5.37451,4.6494,6.10329,1.17369
1.88,1.42878,1.61615,5.36024,4.63591,6.08875,1.17401
1.89,1.43186,1.6177,5.34594,4.62236,6.07419,1.17431
1.9,1.43501,1.61921,5.33161,4.60877,6.05961,1.1746
1.91,1.43821,1.62068,5.31724,4.59512,6.04499,1.17489
1.92,1.44145,1.62214,5.30285,4.58141,6.03033,1.17518
1.93,1.44469,1.62355,5.28842,4.56763,6.01564,1.17545
1.94,1.4479,1.62488,5.27396,4.55379,6.00094,1.17572
1.95,1.451,1.62618,5.25946,4.5399,5.98622,1.17599
1.96,1.4541,1.62745,5.24494,4.52595,5.97146,1.17625
1.97,1.45714,1.62872,5.23039,4.51195,5.95665,1.17651
1.98,1.46035,1.62992,5.2158,4.49788,5.94183,1.17676
1.99,1.46348,1.63111,5.20118,4.48376,5.92697,1.17701
2,1.4666,1.63233,5.18653,4.46961,5.91206,1.17728
2.01,1.46971,1.63355,5.17185,4.45539,5.89712,1.17757
2.02,1.47277,1.63475,5.15714,4.44112,5.88213,1.17785
2.03,1.47583,1.63594,5.1424,4.42681,5.86712,1.17813
2.04,1.47883,1.63713,5.12763,4.41246,5.85205,1.17841
2.05,1.48173,1.63832,5.11283,4.39806,5.83696,1.17869
2.06,1.48473,1.6395,5.098,4.38363,5.82183,1.17897
2.07,1.48768,1.64064,5.08314,4.36914,5.8067,1.17925
2.08,1.49063,1.64181,5.06825,4.35464,5.79151,1.17953
2.09,1.4935,1.64298,5.05333,4.3401,5.77629,1.17982
2.1,1.49629,1.64415,5.03839,4.32553,5.76104,1.1801
2.11,1.4992,1.6453,5.02341,4.31089,5.74576,1.18039
2.12,1.5019,1.64647,5.00841,4.29623,5.73043,1.18068
2.13,1.5046,1.64766,4.99338,4.28153,5.71505,1.18098
2.14,1.50731,1.64889,4.97832,4.2668,5.69962,1.18128
2.15,1.50998,1.65008,4.96323,4.25201,5.68417,1.18159
2.16,1.51266,1.6513,4.94812,4.2372,5.66867,1.18189
2.17,1.51522,1.65258,4.93299,4.22238,5.65311,1.1822
2.18,1.51769,1.6539,4.91782,4.20752,5.6375,1.18252
2.19,1.52024,1.65522,4.90264,4.19264,5.62187,1.18284
2.2,1.52254,1.65657,4.88742,4.17773,5.60618,1.18317
2.21,1.52478,1.65797,4.87219,4.16281,5.59045,1.1835
2.22,1.52706,1.65942,4.85693,4.14785,5.57467,1.18384
2.23,1.52943,1.66091,4.84165,4.13289,5.55886,1.1842
2.24,1.53163,1.66245,4.82635,4.1179,5.543,1.18458
2.25,1.53375,1.66405,4.81102,4.10292,5.5271,1.18496
2.26,1.53594,1.66569,4.79568,4.08791,5.51116,1.18534
2.27,1.538,1.66737,4.78031,4.07289,5.49518,1.18574
2.28,1.53993,1.66907,4.76492,4.05785,5.47918,1.18614
2.29,1.54179,1.6708,4.74951,4.04281,5.46314,1.18655
2.3,1.54378,1.67256,4.73409,4.02773,5.44706,1.18695
2.31,1.54565,1.67437,4.71864,4.01267,5.43095,1.18737
2.32,1.54741,1.67619,4.70318,3.99756,5.41481,1.18779
2.33,1.54912,1.67807,4.6877,3.98246,5.39864,1.18823
2.34,1.5508,1.68,4.6722,3.96735,5.38243,1.18866
2.35,1.55245,1.68195,4.65669,3.95224,5.3662,1.1891
2.36,1.55394,1.68393,4.64115,3.93711,5.34993,1.18955
2.37,1.55514,1.68597,4.62561,3.92197,5.33362,1.19
2.38,1.55665,1.68806,4.61005,3.90683,5.31729,1.19047
2.39,1.5581,1.69017,4.59448,3.89169,5.30094,1.19094
2.4,1.55954,1.6923,4.57889,3.87654,5.28458,1.19142
2.41,1.56084,1.69448,4.56329,3.86138,5.26818,1.1919
2.42,1.56209,1.6967,4.54768,3.84623,5.25176,1.19239
2.43,1.5633,1.69892,4.53206,3.83107,5.23535,1.19288
2.44,1.56452,1.70117,4.51642,3.8159,5.21892,1.19339
2.45,1.56567,1.70343,4.50077,3.80072,5.20247,1.19389
2.46,1.56678,1.70573,4.48511,3.78555,5.18601,1.1944
2.47,1.56783,1.70801,4.46944,3.77036,5.16955,1.19492
2.48,1.56911,1.71032,4.45375,3.75516,5.15307,1.19544
2.49,1.57007,1.71265,4.43806,3.73995,5.13656,1.19596
2.5,1.57098,1.71501,4.42236,3.72475,5.12005,1.19648
2.51,1.57185,1.71735,4.40664,3.70954,5.10356,1.19701
2.52,1.57263,1.71971,4.39092,3.69432,5.08705,1.19754
2.53,1.57343,1.7221,4.37519,3.6791,5.07052,1.19808
2.54,1.57428,1.72451,4.35946,3.66387,5.05398,1.19863
2.55,1.57501,1.72691,4.34371,3.64863,5.03744,1.19917
2.56,1.57572,1.72932,4.32796,3.6334,5.02091,1.19973
2.57,1.57635,1.73173,4.3122,3.61815,5.00437,1.20028
2.58,1.57701,1.73415,4.29643,3.60294,4.98786,1.20083
2.59,1.57766,1.73655,4.28066,3.58772,4.97137,1.20139
2.6,1.57822,1.73895,4.26489,3.57251,4.95489,1.20195
2.61,1.57874,1.74133,4.2491,3.55728,4.93841,1.2025
2.62,1.57926,1.74369,4.23331,3.54206,4.92196,1.20306
2.63,1.5799,1.74603,4.21752,3.52683,4.90551,1.20361
2.64,1.58038,1.74837,4.20172,3.5116,4.88907,1.20417
2.65,1.58093,1.75069,4.18591,3.49635,4.87263,1.20472
2.66,1.58142,1.75302,4.1701,3.48111,4.85621,1.20528
2.67,1.5818,1.75532,4.15429,3.46588,4.8398,1.20584
2.68,1.58227,1.75763,4.13847,3.45065,4.8234,1.2064
2.69,1.58276,1.75992,4.12265,3.4354,4.80701,1.20696
2.7,1.58312,1.7622,4.10682,3.42017,4.79063,1.20752
2.71,1.58352,1.76446,4.09099,3.40492,4.77426,1.20807
2.72,1.58389,1.76674,4.07515,3.38969,4.7579,1.20863
2.73,1.58386,1.76895,4.05932,3.37445,4.74157,1.20919
2.74,1.58431,1.77115,4.04348,3.35921,4.72526,1.20975
2.75,1.58458,1.77334,4.02763,3.34397,4.70896,1.2103
2.76,1.5848,1.77552,4.01179,3.32874,4.69267,1.21084
2.77,1.58508,1.77765,3.99594,3.31349,4.67639,1.21138
2.78,1.58532,1.77975,3.98009,3.29824,4.66013,1.21191
2.79,1.58571,1.78181,3.96424,3.28298,4.64389,1.21244
2.8,1.58594,1.78387,3.94838,3.26774,4.62765,1.21295
2.81,1.5862,1.7859,3.93252,3.25249,4.61143,1.21347
2.82,1.5864,1.7879,3.91666,3.23724,4.59523,1.21398
2.83,1.58665,1.78988,3.9008,3.222,4.57905,1.21448
2.84,1.58695,1.79185,3.88493,3.20676,4.56287,1.21498
2.85,1.5873,1.79377,3.86906,3.19151,4.54671,1.21547
2.86,1.58755,1.79563,3.85319,3.17626,4.5306,1.21595
2.87,1.58788,1.7975,3.83731,3.16101,4.51451,1.21646
2.88,1.58808,1.79936,3.82144,3.14577,4.49844,1.21696
2.89,1.58827,1.80117,3.80555,3.13054,4.4824,1.21747
2.9,1.58837,1.80296,3.78967,3.11529,4.46636,1.21796
2.91,1.58856,1.80472,3.77379,3.10006,4.45035,1.21845
2.92,1.58878,1.8065,3.75791,3.08482,4.43434,1.21895
2.93,1.58898,1.80813,3.74202,3.06957,4.41835,1.21938
2.94,1.58919,1.80977,3.72613,3.05431,4.40237,1.21984
2.95,1.58942,1.81139,3.71024,3.03904,4.38638,1.22027
2.96,1.58966,1.81298,3.69434,3.02376,4.37039,1.2207
2.97,1.5899,1.81456,3.67845,3.00848,4.3544,1.22112
2.98,1.59014,1.81609,3.66255,2.99319,4.33842,1.22153
2.99,1.59035,1.81762,3.64665,2.9779,4.32244,1.22193
3,1.59072,1.81912,3.63074,2.96262,4.30647,1.22232
3.01,1.59098,1.82056,3.61484,2.94733,4.29053,1.22269
3.02,1.5913,1.82197,3.59893,2.93202,4.27458,1.22306
3.03,1.59166,1.82335,3.58301,2.91671,4.25864,1.22341
3.04,1.59196,1.8247,3.5671,2.9014,4.24272,1.22375
3.05,1.59222,1.82603,3.55118,2.88611,4.22682,1.22408
3.06,1.5926,1.82732,3.53526,2.8708,4.21092,1.22441
3.07,1.59296,1.82863,3.51933,2.8555,4.19502,1.22473
3.08,1.59323,1.82993,3.5034,2.84021,4.17911,1.22505
3.09,1.59363,1.83126,3.48747,2.82492,4.16322,1.22539
3.1,1.59411,1.83256,3.47153,2.80961,4.14733,1.22572
3.11,1.59462,1.83382,3.45559,2.7943,4.13142,1.22602
3.12,1.59501,1.83508,3.43964,2.77898,4.11551,1.22632
3.13,1.59534,1.83634,3.42369,2.76366,4.09959,1.22661
3.14,1.59574,1.83757,3.40774,2.74832,4.08365,1.22689
3.15,1.59613,1.83877,3.39178,2.73297,4.06772,1.22715
3.16,1.59668,1.83994,3.37582,2.71762,4.0518,1.22741
3.17,1.59715,1.84107,3.35985,2.70228,4.0359,1.22765
3.18,1.59751,1.84214,3.34388,2.68691,4.02002,1.22789
3.19,1.59793,1.84316,3.3279,2.67154,4.00415,1.22811
3.2,1.59821,1.84412,3.31192,2.65616,3.9883,1.22832
3.21,1.59862,1.84506,3.29594,2.64078,3.97246,1.22852
3.22,1.59902,1.84595,3.27995,2.62537,3.95663,1.22872
3.23,1.59947,1.84683,3.26396,2.60997,3.94078,1.2289
3.24,1.60001,1.84768,3.24797,2.59456,3.92496,1.22907
3.25,1.60002,1.84852,3.23197,2.57917,3.90914,1.22924
3.26,1.60054,1.84934,3.21597,2.56375,3.8933,1.22939
3.27,1.60106,1.85019,3.19996,2.54833,3.87744,1.22955
3.28,1.60153,1.85105,3.18395,2.5329,3.86158,1.22973
3.29,1.6021,1.85193,3.16793,2.51747,3.8457,1.22989
3.3,1.60272,1.8528,3.15191,2.50201,3.82979,1.23006
3.31,1.60327,1.85365,3.13588,2.48654,3.81386,1.2302
3.32,1.60382,1.85449,3.11985,2.47107,3.79794,1.23033
3.33,1.60445,1.85533,3.10381,2.45559,3.782,1.23046
3.34,1.60507,1.85614,3.08776,2.44009,3.76605,1.23058
3.35,1.60557,1.85693,3.07171,2.42458,3.75008,1.23068
3.36,1.60619,1.85769,3.05566,2.40906,3.73413,1.23079
3.37,1.6068,1.85845,3.03959,2.39353,3.71817,1.23088
3.38,1.60739,1.85918,3.02352,2.37798,3.70218,1.23097
3.39,1.60804,1.85988,3.00745,2.36241,3.68619,1.23104
3.4,1.60888,1.86057,2.99136,2.34684,3.67021,1.23111
3.41,1.60962,1.86124,2.97527,2.33126,3.65423,1.23118
3.42,1.61024,1.8619,2.95918,2.31566,3.63821,1.23123
3.43,1.61087,1.86253,2.94307,2.30003,3.62219,1.23128
3.44,1.61161,1.86315,2.92696,2.2844,3.60617,1.23133
3.45,1.61216,1.86378,2.91084,2.26875,3.59013,1.23138
3.46,1.61297,1.86445,2.89472,2.25308,3.57407,1.23146
3.47,1.61326,1.86507,2.87859,2.23739,3.55802,1.23153
3.48,1.61392,1.8657,2.86245,2.22171,3.54197,1.2316
3.49,1.61453,1.86629,2.84631,2.20601,3.52592,1.23167
3.5,1.61509,1.86685,2.83017,2.19029,3.50987,1.23173
3.51,1.61576,1.8674,2.81401,2.17456,3.4938,1.23178
3.52,1.61628,1.86793,2.79786,2.15881,3.47774,1.23183
3.53,1.61691,1.86845,2.78169,2.14306,3.46166,1.23188
3.54,1.61758,1.86895,2.76552,2.12728,3.44558,1.23192
3.55,1.61817,1.86941,2.74934,2.11148,3.42948,1.23195
3.56,1.61878,1.86987,2.73316,2.09567,3.41338,1.23197
3.57,1.61949,1.87031,2.71697,2.07985,3.39727,1.23199
3.58,1.62002,1.87075,2.70078,2.06401,3.38114,1.23201
3.59,1.62058,1.87115,2.68457,2.04815,3.36502,1.23203
3.6,1.62125,1.87155,2.66837,2.03227,3.34888,1.23205
3.61,1.62179,1.87197,2.65215,2.01638,3.33271,1.23207
3.62,1.62241,1.87235,2.63593,2.00046,3.31654,1.23209
3.63,1.62304,1.87271,2.61971,1.98453,3.30037,1.2321
3.64,1.62362,1.87308,2.60348,1.96858,3.28419,1.23211
3.65,1.62416,1.87346,2.58724,1.95262,3.26799,1.23215
3.66,1.62475,1.87385,2.571,1.93665,3.25179,1.23219
3.67,1.62516,1.87423,2.55475,1.92066,3.23558,1.23224
3.68,1.62564,1.87462,2.53849,1.90466,3.21936,1.23228
3.69,1.62602,1.875,2.52224,1.88865,3.20313,1.23233
3.7,1.62687,1.87538,2.50598,1.87262,3.18688,1.23237
3.71,1.6273,1.87575,2.48971,1.85659,3.17063,1.23241
3.72,1.62782,1.87615,2.47343,1.84055,3.15436,1.23245
3.73,1.62822,1.87656,2.45715,1.8245,3.13807,1.23249
3.74,1.62864,1.87696,2.44087,1.80844,3.12177,1.23253
3.75,1.62899,1.87736,2.42459,1.79236,3.10546,1.23258
3.76,1.62945,1.87777,2.4083,1.77628,3.08914,1.23263
3.77,1.62986,1.87819,2.392,1.76019,3.07281,1.23268
3.78,1.63016,1.87859,2.3757,1.74408,3.05647,1.23272
3.79,1.63052,1.87901,2.3594,1.72798,3.04013,1.23277
3.8,1.63062,1.87945,2.34309,1.71188,3.02379,1.23283
3.81,1.63084,1.8799,2.32679,1.69577,3.00743,1.2329
