time,velocity,ratio,centerX,Xmax,Xmin,Ymax
0,0,1,4.75,3.75,5.75,1
0.01,0.0199774,1,4.7499,3.7499,5.7499,1
0.02,0.0399291,1.00001,4.74961,3.74961,5.74959,1
0.03,0.0598019,1.00003,4.74912,3.74912,5.74907,1.00001
0.04,0.0795848,1.00005,4.74842,3.74843,5.74836,1.00001
0.05,0.0992804,1.00008,4.74753,3.74756,5.74743,1.00002
0.06,0.118887,1.00012,4.74645,3.74649,5.74629,1.00002
0.07,0.138399,1.00015,4.74517,3.74523,5.74497,1.00003
0.08,0.15782,1.00021,4.74369,3.7438,5.74342,1.00003
0.09,0.177139,1.00027,4.74202,3.74215,5.74169,1.00004
0.1,0.196385,1.00036,4.74016,3.74033,5.73975,1.00007
0.11,0.215521,1.00047,4.7381,3.73832,5.73761,1.00011
0.12,0.234562,1.00058,4.73586,3.73614,5.73527,1.00015
0.13,0.253493,1.00072,4.73342,3.73379,5.73272,1.00019
0.14,0.272328,1.00088,4.7308,3.73126,5.72995,1.00023
0.15,0.291062,1.00107,4.72798,3.72855,5.72698,1.00028
0.16,0.309882,1.00128,4.72499,3.72566,5.72379,1.00034
0.17,0.328457,1.00157,4.7218,3.72264,5.72037,1.00043
0.18,0.346884,1.00187,4.71843,3.71944,5.71676,1.00053
0.19,0.365737,1.0022,4.71487,3.71608,5.71292,1.00062
0.2,0.384189,1.00256,4.71112,3.71253,5.70887,1.00072
0.21,0.402345,1.00299,4.70719,3.70883,5.70459,1.00087
0.22,0.420532,1.00348,4.70308,3.70498,5.7001,1.00103
0.23,0.438993,1.00401,4.69879,3.70096,5.69534,1.00119
0.24,0.456872,1.00459,4.69432,3.69681,5.69035,1.00135
0.25,0.474728,1.00526,4.68966,3.69251,5.68517,1.00157
0.26,0.492607,1.00597,4.68483,3.68806,5.67976,1.0018
0.27,0.509904,1.00672,4.67982,3.68345,5.67413,1.00203
0.28,0.5277,1.00756,4.67464,3.67872,5.66829,1.00231
0.29,0.545089,1.00848,4.66928,3.67386,5.66221,1.0026
0.3,0.561856,1.00943,4.66375,3.66886,5.65591,1.00289
0.31,0.579478,1.01047,4.65805,3.66368,5.64938,1.00325
0.32,0.595954,1.01164,4.65217,3.65843,5.64257,1.00362
0.33,0.613029,1.0128,4.64613,3.65304,5.6356,1.00397
0.34,0.629772,1.0141,4.63992,3.6475,5.62839,1.00441
0.35,0.645499,1.01548,4.63355,3.64185,5.6209,1.00485
0.36,0.661049,1.01694,4.62702,3.6361,5.61321,1.0053
0.37,0.67636,1.01845,4.62034,3.63022,5.60537,1.0058
0.38,0.691503,1.02001,4.6135,3.62421,5.59728,1.00628
0.39,0.705994,1.02171,4.60652,3.61812,5.58903,1.00684
0.4,0.720558,1.02347,4.59939,3.61191,5.58051,1.0074
0.41,0.735146,1.02531,4.59211,3.60557,5.5718,1.008
0.42,0.749607,1.02721,4.58469,3.59915,5.56292,1.00861
0.43,0.763744,1.02919,4.57713,3.59257,5.55381,1.00924
0.44,0.777703,1.03126,4.56942,3.58594,5.54453,1.00991
0.45,0.791343,1.03338,4.56158,3.57919,5.53505,1.01058
0.46,0.804847,1.0356,4.55361,3.57232,5.52538,1.0113
0.47,0.818046,1.03791,4.54549,3.56537,5.51547,1.01202
0.48,0.831044,1.04028,4.53725,3.55828,5.50542,1.01279
0.49,0.843908,1.04274,4.52888,3.55115,5.49515,1.01355
0.5,0.856336,1.04528,4.52038,3.54386,5.48471,1.01436
0.51,0.868679,1.04786,4.51176,3.53654,5.47413,1.01517
0.52,0.881049,1.05053,4.50301,3.52908,5.46337,1.01602
0.53,0.89297,1.05328,4.49415,3.52156,5.45241,1.01687
0.54,0.904555,1.0561,4.48516,3.51396,5.44133,1.01775
0.55,0.915887,1.05899,4.47606,3.50626,5.43006,1.01865
0.56,0.927142,1.06192,4.46685,3.49847,5.41868,1.01955
0.57,0.938138,1.06495,4.45753,3.49063,5.40717,1.02051
0.58,0.948997,1.06797,4.44809,3.48269,5.39555,1.02143
0.59,0.959614,1.07118,4.43855,3.47469,5.38369,1.02244
0.6,0.969969,1.07432,4.42891,3.46658,5.37178,1.0234
0.61,0.980252,1.07761,4.41916,3.45843,5.3597,1.02441
0.62,0.990358,1.08088,4.40931,3.45015,5.34755,1.02543
0.63,1.00015,1.08419,4.39936,3.44184,5.3353,1.02644
0.64,1.00979,1.08758,4.38931,3.43338,5.3229,1.0275
0.65,1.01926,1.09099,4.37917,3.42492,5.31043,1.02854
0.66,1.02865,1.09443,4.36893,3.41632,5.29786,1.0296
0.67,1.0378,1.09794,4.3586,3.4077,5.28519,1.03068
0.68,1.04696,1.10137,4.34818,3.39896,5.27251,1.03173
0.69,1.05583,1.10491,4.33767,3.39016,5.2597,1.03283
0.7,1.06466,1.10847,4.32707,3.38131,5.24681,1.03393
0.71,1.07346,1.11199,4.31638,3.37232,5.23386,1.03501
0.72,1.08199,1.11564,4.3056,3.36334,5.22084,1.03614
0.73,1.09027,1.11922,4.29475,3.35424,5.2078,1.03727
0.74,1.09844,1.1228,4.2838,3.34507,5.19468,1.03837
0.75,1.10651,1.12648,4.27278,3.33585,5.18148,1.03953
0.76,1.11449,1.13013,4.26168,3.32651,5.1682,1.04067
0.77,1.12241,1.13372,4.2505,3.31714,5.15497,1.04179
0.78,1.12999,1.13736,4.23924,3.30766,5.14162,1.04294
0.79,1.13768,1.14101,4.2279,3.29808,5.12821,1.0441
0.8,1.14513,1.14462,4.21649,3.28847,5.11482,1.04523
0.81,1.15263,1.1482,4.205,3.27875,5.10136,1.04636
0.82,1.15995,1.15179,4.19344,3.26896,5.0879,1.04752
0.83,1.16715,1.1554,4.18181,3.25914,5.07438,1.04866
0.84,1.17433,1.1589,4.1701,3.24917,5.06083,1.04977
0.85,1.18148,1.16246,4.15833,3.23916,5.04722,1.0509
0.86,1.18853,1.16605,4.14648,3.22914,5.03361,1.05205
0.87,1.19578,1.16948,4.13456,3.21898,5.02008,1.05318
0.88,1.2027,1.1729,4.12257,3.20876,5.00647,1.05427
0.89,1.20966,1.17638,4.11051,3.19852,4.99278,1.05537
0.9,1.2164,1.17987,4.09838,3.18814,4.97901,1.0565
0.91,1.22304,1.18325,4.08619,3.17767,4.96528,1.05759
0.92,1.22977,1.18665,4.07392,3.16719,4.95149,1.05867
0.93,1.2363,1.19004,4.0616,3.15662,4.9376,1.05972
0.94,1.24273,1.19336,4.0492,3.14591,4.92373,1.06078
0.95,1.24917,1.19665,4.03675,3.13518,4.90988,1.06185
0.96,1.25539,1.19989,4.02422,3.12438,4.89604,1.0629
0.97,1.26167,1.20311,4.01164,3.11351,4.88211,1.06391
0.98,1.26794,1.20629,3.99899,3.10254,4.86814,1.06491
0.99,1.27391,1.20945,3.98629,3.09154,4.85414,1.06589
1,1.27992,1.21253,3.97352,3.08047,4.8402,1.06687
1.01,1.28598,1.21559,3.96069,3.06929,4.82623,1.06785
1.02,1.29177,1.2186,3.94781,3.05802,4.81219,1.06882
1.03,1.2983,1.22162,3.93486,3.04674,4.79811,1.06976
1.04,1.3046,1.22458,3.92185,3.03539,4.78402,1.07068
1.05,1.31075,1.22743,3.90877,3.02393,4.76997,1.07157
1.06,1.31683,1.23026,3.89564,3.01239,4.75582,1.07244
1.07,1.32294,1.23313,3.88244,3.00077,4.7416,1.07333
1.08,1.32877,1.23601,3.86918,2.98913,4.72732,1.07421
1.09,1.33481,1.23881,3.85586,2.97741,4.71304,1.07506
1.1,1.34067,1.24153,3.84249,2.96558,4.69875,1.07589
1.11,1.3466,1.24422,3.82905,2.95367,4.6844,1.07671
1.12,1.35249,1.24691,3.81556,2.94173,4.67,1.0775
1.13,1.35818,1.24956,3.80201,2.92971,4.65556,1.07828
1.14,1.36396,1.25212,3.7884,2.9176,4.64111,1.07902
1.15,1.36971,1.25466,3.77473,2.9054,4.62661,1.07976
1.16,1.37547,1.25717,3.76101,2.89312,4.61206,1.0805
1.17,1.38124,1.25969,3.74723,2.88081,4.59748,1.08124
1.18,1.38687,1.26213,3.73339,2.86842,4.58292,1.08196
1.19,1.39252,1.26458,3.71949,2.85599,4.56828,1.08266
1.2,1.39798,1.267,3.70554,2.84346,4.55356,1.08335
1.21,1.40415,1.26938,3.69154,2.83084,4.53878,1.08402
1.22,1.40996,1.27171,3.67747,2.81814,4.52399,1.08468
1.23,1.41565,1.27404,3.66334,2.80535,4.5091,1.08532
1.24,1.42139,1.27639,3.64916,2.79251,4.49413,1.08596
1.25,1.42699,1.27869,3.63492,2.77959,4.47912,1.08658
1.26,1.43254,1.28091,3.62062,2.76659,4.46412,1.08719
1.27,1.43802,1.28308,3.60627,2.75349,4.44908,1.08779
1.28,1.44338,1.28525,3.59187,2.74032,4.43395,1.08837
1.29,1.44873,1.28742,3.57741,2.72708,4.41875,1.08895
1.3,1.45396,1.28954,3.5629,2.71376,4.40352,1.08951
1.31,1.45924,1.29162,3.54833,2.70037,4.38828,1.09006
1.32,1.46452,1.29369,3.53371,2.68691,4.37296,1.09062
1.33,1.46974,1.29577,3.51904,2.67338,4.35759,1.09118
1.34,1.47503,1.29781,3.50432,2.65978,4.34218,1.09172
1.35,1.4802,1.29979,3.48955,2.64609,4.32676,1.09226
1.36,1.48519,1.3018,3.47472,2.63235,4.31124,1.09279
1.37,1.48878,1.30377,3.45986,2.61851,4.29567,1.09331
1.38,1.49319,1.30573,3.44495,2.60464,4.28007,1.09383
1.39,1.49814,1.30761,3.42999,2.59068,4.26446,1.09433
1.4,1.503,1.30952,3.41499,2.57665,4.24876,1.09483
1.41,1.50787,1.31143,3.39994,2.56255,4.23298,1.09533
1.42,1.51281,1.31332,3.38483,2.54838,4.21715,1.09582
1.43,1.51775,1.31515,3.36968,2.53414,4.20134,1.09631
1.44,1.52271,1.31698,3.35448,2.51984,4.18545,1.09679
1.45,1.52753,1.3188,3.33923,2.50549,4.16952,1.09726
1.46,1.53218,1.3206,3.32394,2.49106,4.15355,1.09774
1.47,1.53688,1.32238,3.30859,2.4766,4.13757,1.09822
1.48,1.54151,1.32414,3.2932,2.46205,4.12153,1.09869
1.49,1.5461,1.32591,3.27777,2.44746,4.10543,1.09917
1.5,1.55068,1.32767,3.26228,2.43277,4.08927,1.09964
1.51,1.55511,1.32941,3.24676,2.41804,4.07309,1.10012
1.52,1.55963,1.33114,3.23118,2.40324,4.05685,1.10059
1.53,1.56405,1.33287,3.21557,2.38839,4.04057,1.10107
1.54,1.56845,1.33459,3.19991,2.37349,4.02425,1.10155
1.55,1.57272,1.33632,3.1842,2.35855,4.0079,1.10203
1.56,1.57708,1.33805,3.16845,2.34355,3.99149,1.10251
1.57,1.58126,1.3398,3.15266,2.32851,3.97503,1.103
1.58,1.58536,1.34151,3.13683,2.31343,3.95855,1.10348
1.59,1.58941,1.34323,3.12096,2.29829,3.94203,1.10397
1.6,1.59335,1.34499,3.10505,2.2831,3.92542,1.10445
1.61,1.59731,1.34677,3.0891,2.26789,3.90876,1.10494
1.62,1.60117,1.34853,3.07311,2.25264,3.8921,1.10543
1.63,1.60488,1.35032,3.05708,2.23734,3.87537,1.10593
1.64,1.60869,1.35213,3.04101,2.22202,3.85859,1.10643
1.65,1.61236,1.35398,3.02491,2.20666,3.84174,1.10693
1.66,1.61585,1.35578,3.00877,2.19125,3.82491,1.10744
1.67,1.61932,1.35759,2.99259,2.17579,3.80801,1.10795
1.68,1.62278,1.35945,2.97638,2.16031,3.79106,1.10846
1.69,1.62624,1.36131,2.96014,2.14479,3.77407,1.10898
1.7,1.62942,1.36318,2.94386,2.12925,3.75706,1.1095
1.71,1.63264,1.36506,2.92755,2.11367,3.74,1.11002
1.72,1.63595,1.36703,2.91121,2.09809,3.72287,1.11057
1.73,1.63939,1.36901,2.89484,2.08247,3.70571,1.11112
1.74,1.64263,1.37101,2.87843,2.06682,3.68851,1.11167
1.75,1.64561,1.37301,2.86199,2.05112,3.67126,1.11223
1.76,1.6486,1.37505,2.84552,2.03542,3.65396,1.11279
1.77,1.65148,1.37708,2.82902,2.01969,3.63667,1.11336
1.78,1.65426,1.37914,2.81249,2.00394,3.61933,1.11392
1.79,1.65666,1.3812,2.79594,1.98815,3.60195,1.11449
1.8,1.65932,1.38332,2.77936,1.97238,3.58454,1.11506
1.81,1.66149,1.38544,2.76276,1.9566,3.56711,1.11564
1.82,1.66501,1.38759,2.74613,1.9408,3.54964,1.11621
1.83,1.66788,1.38975,2.72946,1.92495,3.53212,1.11678
1.84,1.67052,1.39191,2.71277,1.90909,3.5146,1.11736
1.85,1.67274,1.39408,2.69606,1.89322,3.49705,1.11794
1.86,1.67508,1.39626,2.67932,1.87732,3.47948,1.11852
1.87,1.67736,1.39844,2.66256,1.86139,3.46188,1.1191
1.88,1.67938,1.40065,2.64578,1.84546,3.4443,1.1197
1.89,1.68108,1.4029,2.62898,1.82953,3.42667,1.12032
1.9,1.6828,1.40514,2.61216,1.81358,3.40904,1.12092
1.91,1.68464,1.40735,2.59532,1.7976,3.39142,1.12153
1.92,1.68653,1.40957,2.57847,1.78161,3.37377,1.12213
1.93,1.68836,1.41182,2.5616,1.76561,3.35608,1.12273
1.94,1.69019,1.41407,2.5447,1.7496,3.33838,1.12332
1.95,1.69187,1.41628,2.52779,1.73358,3.32071,1.12392
1.96,1.69346,1.41853,2.51087,1.71755,3.30301,1.12451
1.97,1.69501,1.42081,2.49393,1.70152,3.28527,1.12511
1.98,1.69664,1.42305,2.47697,1.68547,3.26756,1.12569
1.99,1.69813,1.42529,2.46,1.66942,3.24984,1.12627
2,1.69966,1.42759,2.44301,1.65336,3.2321,1.1269
2.01,1.70097,1.42992,2.42601,1.6373,3.21433,1.12752
2.02,1.70233,1.43216,2.40899,1.6212,3.19662,1.12813
2.03,1.70364,1.43441,2.39197,1.60511,3.17891,1.12874
2.04,1.70487,1.43665,2.37492,1.58901,3.16118,1.12933
2.05,1.70609,1.43886,2.35787,1.5729,3.14349,1.12992
2.06,1.70721,1.44106,2.34081,1.55677,3.12578,1.13051
2.07,1.70837,1.44327,2.32373,1.54064,3.10807,1.1311
2.08,1.70941,1.44547,2.30664,1.5245,3.09034,1.13169
2.09,1.71044,1.44764,2.28954,1.50836,3.07265,1.13226
2.1,1.71133,1.44983,2.27244,1.49219,3.05495,1.13287
2.11,1.71228,1.45199,2.25532,1.47604,3.03729,1.13346
2.12,1.71323,1.4541,2.23819,1.45987,3.01966,1.13405
2.13,1.7141,1.4562,2.22106,1.44371,3.00202,1.13461
2.14,1.71497,1.45831,2.20391,1.4275,2.98433,1.13517
2.15,1.71573,1.46044,2.18676,1.4113,2.96662,1.13573
2.16,1.7165,1.46254,2.1696,1.39509,2.94894,1.13628
2.17,1.71695,1.4646,2.15244,1.37889,2.93128,1.13682
2.18,1.71767,1.46663,2.13526,1.36266,2.91364,1.13736
2.19,1.71823,1.4687,2.11808,1.34645,2.89601,1.13792
2.2,1.7188,1.47073,2.1009,1.33023,2.87841,1.13848
2.21,1.71916,1.47271,2.08371,1.31399,2.86082,1.13901
2.22,1.71974,1.47468,2.06652,1.29774,2.8432,1.13953
2.23,1.72011,1.4766,2.04932,1.28148,2.82562,1.14004
2.24,1.72042,1.47855,2.03212,1.26522,2.80801,1.14054
2.25,1.72079,1.48047,2.01492,1.24895,2.79039,1.14102
2.26,1.72106,1.48238,1.99771,1.2327,2.7728,1.14151
2.27,1.72134,1.48431,1.9805,1.21645,2.75524,1.14202
2.28,1.72165,1.48622,1.96328,1.2002,2.73768,1.14251
2.29,1.72185,1.48811,1.94607,1.18396,2.72012,1.14299
2.3,1.72186,1.48998,1.92885,1.16772,2.70259,1.14346
2.31,1.72184,1.49184,1.91163,1.15148,2.68506,1.14393
2.32,1.72178,1.4937,1.89442,1.13526,2.66753,1.14438
2.33,1.72162,1.49553,1.8772,1.11902,2.64999,1.14481
2.34,1.7215,1.49739,1.85998,1.10281,2.63251,1.14528
2.35,1.72121,1.49927,1.84277,1.08661,2.61502,1.14575
2.36,1.72094,1.50113,1.82556,1.0704,2.59752,1.1462
2.37,1.72055,1.50297,1.80836,1.0542,2.58003,1.14664
2.38,1.72012,1.50482,1.79115,1.03802,2.56254,1.14706
2.39,1.71957,1.50666,1.77396,1.02185,2.54505,1.14747
2.4,1.71903,1.5085,1.75676,1.00569,2.52756,1.14787
2.41,1.71846,1.51032,1.73958,0.989554,2.51013,1.14828
2.42,1.71771,1.51223,1.7224,0.973448,2.49269,1.14872
2.43,1.71687,1.51411,1.70523,0.957376,2.47529,1.14915
2.44,1.71582,1.51597,1.68806,0.941322,2.45791,1.14955
2.45,1.71475,1.51778,1.67091,0.925278,2.44059,1.14995
2.46,1.71349,1.51963,1.65377,0.909258,2.42324,1.15035
2.47,1.71218,1.52151,1.63664,0.89326,2.40588,1.15074
2.48,1.71072,1.5234,1.61953,0.877285,2.38854,1.15113
2.49,1.70916,1.52536,1.60243,0.861333,2.3712,1.15155
2.5,1.70748,1.52736,1.58535,0.845422,2.35387,1.15197
2.51,1.7057,1.52937,1.56828,0.829543,2.33654,1.15237
2.52,1.70375,1.53138,1.55124,0.813712,2.31924,1.15277
2.53,1.70172,1.53343,1.53421,0.79791,2.30194,1.15316
2.54,1.69952,1.53554,1.51721,0.782164,2.28465,1.15356
2.55,1.69714,1.53767,1.50022,0.766462,2.26738,1.15396
2.56,1.69461,1.53984,1.48327,0.75083,2.25013,1.15434
2.57,1.69178,1.54212,1.46633,0.735253,2.23289,1.15476
2.58,1.6888,1.54449,1.44943,0.719764,2.21566,1.1552
2.59,1.68567,1.54687,1.43256,0.70433,2.19848,1.15562
2.6,1.68223,1.54931,1.41572,0.688979,2.18132,1.15605
2.61,1.67863,1.55181,1.39892,0.67368,2.16419,1.15649
2.62,1.67474,1.55436,1.38215,0.658459,2.14709,1.15693
2.63,1.67053,1.55697,1.36543,0.64331,2.13003,1.15738
2.64,1.66624,1.55968,1.34874,0.628257,2.11297,1.15784
2.65,1.66155,1.56246,1.3321,0.613276,2.09594,1.1583
2.66,1.65686,1.56539,1.31551,0.598413,2.07894,1.1588
2.67,1.6518,1.56839,1.29897,0.583639,2.06198,1.1593
2.68,1.64647,1.57151,1.28248,0.568991,2.04504,1.15981
2.69,1.64091,1.5747,1.26604,0.554439,2.02817,1.16034
2.7,1.63491,1.578,1.24966,0.540015,2.01134,1.16087
2.71,1.62875,1.58141,1.23335,0.525718,1.99456,1.16142
2.72,1.6222,1.58497,1.21709,0.511573,1.97782,1.16198
2.73,1.61533,1.58863,1.2009,0.497548,1.96114,1.16255
2.74,1.6081,1.59244,1.18479,0.483708,1.94452,1.16313
2.75,1.60052,1.59643,1.16874,0.47004,1.92795,1.16372
2.76,1.59246,1.60063,1.15278,0.456539,1.91143,1.16437
2.77,1.58401,1.605,1.13689,0.443206,1.89499,1.16506
2.78,1.5753,1.60955,1.1211,0.430035,1.87859,1.16576
2.79,1.56615,1.61433,1.10539,0.417071,1.86224,1.16649
2.8,1.5566,1.61925,1.08978,0.404278,1.84596,1.16722
2.81,1.54666,1.62436,1.07426,0.391696,1.82977,1.16798
2.82,1.53627,1.62971,1.05885,0.379345,1.81366,1.16876
2.83,1.52533,1.63525,1.04354,0.367187,1.79763,1.16957
2.84,1.51401,1.64104,1.02834,0.355286,1.78171,1.17041
2.85,1.50216,1.64707,1.01326,0.343622,1.76588,1.17128
2.86,1.48982,1.65337,0.998299,0.332226,1.75015,1.17218
2.87,1.47705,1.65997,0.983465,0.321095,1.73451,1.17311
2.88,1.46369,1.66685,0.968761,0.310228,1.71897,1.17408
2.89,1.44991,1.67403,0.954192,0.29964,1.70355,1.17509
2.9,1.43545,1.68152,0.939765,0.28934,1.68825,1.17615
2.91,1.42062,1.68933,0.925485,0.279313,1.67306,1.17725
2.92,1.40519,1.69745,0.911355,0.269575,1.65801,1.1784
2.93,1.38928,1.70592,0.897383,0.260151,1.64308,1.17959
2.94,1.37268,1.71475,0.883572,0.250995,1.62826,1.18083
2.95,1.35544,1.72396,0.869931,0.24215,1.61355,1.18212
2.96,1.33784,1.73356,0.856464,0.233625,1.59897,1.18346
2.97,1.31955,1.74351,0.843177,0.225428,1.58456,1.18483
2.98,1.30072,1.75383,0.830076,0.217555,1.57031,1.18625
2.99,1.28132,1.76455,0.817164,0.210009,1.55621,1.18773
3,1.26122,1.77567,0.804452,0.202776,1.54228,1.18926
3.01,1.24063,1.78714,0.791942,0.195842,1.52853,1.19084
3.02,1.21942,1.79889,0.779641,0.189162,1.51494,1.19247
3.03,1.19753,1.81104,0.767557,0.18277,1.50151,1.19415
3.04,1.17503,1.82364,0.755691,0.176727,1.48827,1.19589
3.05,1.15197,1.83643,0.744059,0.170851,1.4752,1.19768
3.06,1.12828,1.84919,0.732655,0.164969,1.46233,1.19953
3.07,1.10388,1.86189,0.721494,0.159131,1.44966,1.20141
3.08,1.07895,1.8746,0.710582,0.153352,1.43719,1.20334
3.09,1.05325,1.88727,0.699916,0.147621,1.42496,1.20534
3.1,1.02693,1.89991,0.689517,0.14196,1.41296,1.2074
3.11,1.00004,1.91262,0.679384,0.136389,1.40118,1.20953
3.12,0.972351,1.92518,0.669517,0.130868,1.38961,1.21166
3.13,0.943965,1.93772,0.65994,0.125426,1.37827,1.21383
3.14,0.914814,1.95015,0.650646,0.120085,1.3672,1.21603
3.15,0.884974,1.96269,0.641644,0.11484,1.35639,1.21839
3.16,0.85461,1.97507,0.63295,0.109696,1.34579,1.22069
3.17,0.823498,1.98723,0.624558,0.10468,1.33552,1.22298
3.18,0.791713,1.99917,0.61648,0.0997495,1.32557,1.22532
3.19,0.759351,2.01123,0.608727,0.0949665,1.31579,1.22768
3.2,0.726246,2.02296,0.6013,0.0903287,1.30636,1.22999
3.21,0.69253,2.03445,0.594203,0.0858187,1.29731,1.23236
3.22,0.658153,2.04589,0.587449,0.081449,1.28844,1.23469
3.23,0.623332,2.05681,0.581046,0.0772472,1.28001,1.23693
3.24,0.588105,2.06755,0.574986,0.0731807,1.27184,1.23914
3.25,0.552451,2.07797,0.569281,0.0693078,1.26405,1.24132
3.26,0.516576,2.08819,0.563936,0.065609,1.25645,1.24335
3.27,0.480549,2.09801,0.558954,0.0620383,1.2492,1.24534
3.28,0.444326,2.10732,0.554328,0.0586586,1.24229,1.24715
3.29,0.407974,2.11626,0.550066,0.0554921,1.23583,1.24895
3.3,0.371902,2.1245,0.546165,0.0524002,1.22963,1.25052
3.31,0.336059,2.13246,0.542626,0.0496819,1.22381,1.25189
3.32,0.300498,2.13939,0.539445,0.047016,1.21845,1.25308
3.33,0.26545,2.14598,0.536616,0.0446836,1.21342,1.25404
3.34,0.230837,2.15178,0.534133,0.0424438,1.20877,1.25484
3.35,0.196702,2.15702,0.531993,0.0404404,1.20445,1.25539
3.36,0.16308,2.1619,0.530192,0.0387195,1.2004,1.25572
3.37,0.129929,2.16598,0.528726,0.0371215,1.19676,1.25587
3.38,0.0974581,2.16925,0.527587,0.0356732,1.19352,1.25583
3.39,0.065654,2.17161,0.526771,0.0343808,1.1907,1.25554
3.4,0.0345128,2.17318,0.526269,0.0332134,1.18829,1.2551
3.41,0.00415151,2.1745,0.526075,0.0321784,1.18608,1.25457
3.42,-0.0253849,2.17486,0.52618,0.0312536,1.18437,1.25393
3.43,-0.0540008,2.1745,0.526576,0.0304921,1.18304,1.25311
3.44,-0.0817657,2.1731,0.527253,0.0297972,1.18214,1.25208
3.45,-0.108595,2.17098,0.528202,0.0291565,1.18145,1.2508
3.46,-0.1344,2.16802,0.529416,0.0286115,1.18114,1.24935
3.47,-0.159377,2.16394,0.530883,0.0281354,1.18132,1.2477
3.48,-0.183529,2.1589,0.532596,0.0277671,1.18189,1.24582
3.49,-0.206779,2.15313,0.534546,0.027501,1.18287,1.24383
3.5,-0.229173,2.14639,0.536723,0.0271671,1.18421,1.24173
3.51,-0.250744,2.13884,0.53912,0.0269882,1.18589,1.23935
3.52,-0.271549,2.13065,0.541729,0.0268958,1.18795,1.2369
3.53,-0.291539,2.12139,0.544542,0.0267475,1.19036,1.23424
3.54,-0.310729,2.1118,0.547551,0.0267304,1.19306,1.23153
3.55,-0.329324,2.10141,0.550748,0.026789,1.19612,1.22863
3.56,-0.347274,2.09028,0.554128,0.0268135,1.19956,1.22569
3.57,-0.364581,2.07828,0.557685,0.0269441,1.20354,1.22265
3.58,-0.381272,2.06553,0.561411,0.0270841,1.20784,1.21944
3.59,-0.397354,2.05227,0.565302,0.0272521,1.21254,1.21626
3.6,-0.412926,2.0385,0.56935,0.0275423,1.21754,1.21291
3.61,-0.427975,2.02399,0.573552,0.0277698,1.22303,1.20959
3.62,-0.442491,2.00877,0.577901,0.0280667,1.22896,1.20615
3.63,-0.456504,1.9929,0.582393,0.0284029,1.23538,1.20269
3.64,-0.470058,1.97616,0.587023,0.0287621,1.24236,1.19914
3.65,-0.483185,1.95922,0.591786,0.0290716,1.2496,1.19564
3.66,-0.495857,1.94194,0.596679,0.0294549,1.25711,1.19202
3.67,-0.508105,1.92451,0.601696,0.0298504,1.26489,1.18843
3.68,-0.519977,1.90694,0.606833,0.0302727,1.27283,1.18474
3.69,-0.531454,1.88936,0.612088,0.0306711,1.28096,1.18112
3.7,-0.542544,1.87131,0.617455,0.031109,1.28946,1.17739
3.71,-0.553247,1.85324,0.622931,0.03152,1.2982,1.17373
3.72,-0.563593,1.83518,0.628512,0.0319275,1.307,1.16999
3.73,-0.573594,1.81712,0.634195,0.0323577,1.31609,1.16635
