time,velocity,ratio,centerX,Xmax,Xmin,Ymax
0,0,1,7.25,6.25,8.25,1
0.01,0.0198223,1,7.2499,6.2499,8.2499,1
0.02,0.039561,1,7.24961,6.24961,8.2496,1
0.03,0.0591765,1,7.24912,6.24912,8.24911,1
0.04,0.0786363,1,7.24843,6.24843,8.24842,0.999997
0.05,0.0979856,1.00001,7.24755,6.24756,8.24754,0.999999
0.06,0.117368,1.00003,7.24647,6.2465,8.24645,1
0.07,0.136561,1.00005,7.24521,6.24525,8.24516,1.00001
0.08,0.155651,1.00008,7.24375,6.24381,8.24368,1.00001
0.09,0.174648,1.0001,7.2421,6.24219,8.242,1.00001
0.1,0.193576,1.00016,7.24026,6.24037,8.24014,1.00004
0.11,0.212415,1.00023,7.23823,6.2384,8.23806,1.00006
0.12,0.231159,1.00031,7.23602,6.23623,8.23579,1.00009
0.13,0.24978,1.00037,7.23361,6.23389,8.23335,1.0001
0.14,0.268309,1.00042,7.23102,6.23135,8.23075,1.00012
0.15,0.286717,1.00049,7.22825,6.22862,8.22794,1.00015
0.16,0.305028,1.00062,7.2253,6.22573,8.2249,1.0002
0.17,0.323263,1.00079,7.22216,6.22268,8.22164,1.00027
0.18,0.341389,1.00099,7.21883,6.21948,8.21817,1.00033
0.19,0.359426,1.00119,7.21533,6.21611,8.21449,1.00038
0.2,0.377314,1.00136,7.21165,6.21256,8.21067,1.00042
0.21,0.395132,1.00157,7.20779,6.20881,8.20671,1.00051
0.22,0.412837,1.00181,7.20375,6.2049,8.20252,1.00062
0.23,0.430416,1.00207,7.19954,6.20084,8.19811,1.0007
0.24,0.447877,1.00235,7.19515,6.19666,8.19347,1.00075
0.25,0.465273,1.00268,7.19058,6.19231,8.18871,1.00087
0.26,0.482551,1.00303,7.18585,6.18779,8.18373,1.00099
0.27,0.499685,1.00339,7.18094,6.18311,8.17853,1.00109
0.28,0.516753,1.00379,7.17586,6.17831,8.1732,1.00123
0.29,0.533686,1.00414,7.17061,6.17325,8.16775,1.00137
0.3,0.550503,1.00452,7.16519,6.16806,8.16204,1.0015
0.31,0.567318,1.005,7.1596,6.16276,8.15609,1.00164
0.32,0.58396,1.00544,7.15385,6.15733,8.15005,1.00178
0.33,0.600483,1.00586,7.14793,6.15167,8.14384,1.00192
0.34,0.61694,1.00633,7.14184,6.14584,8.13742,1.0021
0.35,0.633263,1.00677,7.13559,6.1399,8.1309,1.00224
0.36,0.649567,1.00726,7.12918,6.13376,8.12414,1.00242
0.37,0.665797,1.00777,7.1226,6.12752,8.11723,1.00258
0.38,0.681838,1.00821,7.11587,6.1211,8.11021,1.00273
0.39,0.697841,1.00879,7.10897,6.11458,8.10291,1.0029
0.4,0.713722,1.00923,7.10191,6.10784,8.09559,1.00305
0.41,0.729276,1.00974,7.0947,6.10088,8.08802,1.00324
0.42,0.744925,1.01024,7.08733,6.0939,8.08032,1.00338
0.43,0.760391,1.01073,7.07981,6.08665,8.07248,1.00356
0.44,0.775845,1.01117,7.07213,6.07925,8.06447,1.0037
0.45,0.791292,1.01169,7.06429,6.07174,8.05629,1.00388
0.46,0.80658,1.01214,7.0563,6.06404,8.04797,1.00401
0.47,0.821875,1.01265,7.04816,6.05626,8.03955,1.00419
0.48,0.83711,1.01306,7.03987,6.04823,8.03098,1.00433
0.49,0.852194,1.01356,7.03142,6.04012,8.02225,1.0045
0.5,0.867286,1.01399,7.02283,6.03182,8.01335,1.00462
0.51,0.882235,1.01446,7.01408,6.02337,8.00433,1.00481
0.52,0.897083,1.01492,7.00519,6.01482,7.99513,1.00493
0.53,0.91183,1.01536,6.99614,6.00605,7.98581,1.00509
0.54,0.926534,1.0158,6.98695,5.9972,7.97639,1.00523
0.55,0.94116,1.01622,6.97762,5.98811,7.96675,1.00536
0.56,0.955757,1.01669,6.96813,5.97895,7.95701,1.00554
0.57,0.970214,1.01713,6.95851,5.9696,7.94706,1.00567
0.58,0.984569,1.01758,6.94873,5.96012,7.93702,1.00583
0.59,0.998827,1.01802,6.93882,5.95048,7.92681,1.00597
0.6,1.01302,1.01845,6.92876,5.94069,7.91646,1.00611
0.61,1.02712,1.01892,6.91856,5.93083,7.906,1.00628
0.62,1.04118,1.01937,6.90822,5.92076,7.89537,1.00643
0.63,1.05511,1.01986,6.89774,5.91063,7.88455,1.00657
0.64,1.06912,1.0203,6.88712,5.90026,7.87368,1.00674
0.65,1.08297,1.02087,6.87636,5.88986,7.8625,1.0069
0.66,1.09662,1.02136,6.86546,5.87928,7.85127,1.00705
0.67,1.11031,1.02184,6.85443,5.86856,7.83995,1.00723
0.68,1.12385,1.02242,6.84326,5.85774,7.82838,1.00741
0.69,1.1373,1.02293,6.83196,5.84674,7.81672,1.00758
0.7,1.15062,1.02344,6.82052,5.83562,7.80493,1.00774
0.71,1.16381,1.02401,6.80895,5.8244,7.79301,1.00794
0.72,1.17683,1.02457,6.79724,5.81301,7.78091,1.00813
0.73,1.18987,1.02516,6.78541,5.80155,7.76869,1.00831
0.74,1.20283,1.02571,6.77345,5.78996,7.75639,1.00849
0.75,1.21569,1.02632,6.76136,5.77823,7.74391,1.00871
0.76,1.22845,1.02692,6.74914,5.76636,7.73131,1.00892
0.77,1.24114,1.02758,6.73679,5.75445,7.71854,1.00912
0.78,1.2537,1.02817,6.72432,5.74237,7.70571,1.00932
0.79,1.26623,1.02877,6.71172,5.73015,7.69273,1.00952
0.8,1.27858,1.02947,6.699,5.71785,7.67955,1.00975
0.81,1.29091,1.03015,6.68615,5.70547,7.6663,1.00997
0.82,1.30323,1.03079,6.67318,5.69288,7.65291,1.01019
0.83,1.31544,1.0314,6.66009,5.68017,7.63945,1.0104
0.84,1.32756,1.03202,6.64688,5.66738,7.62587,1.0106
0.85,1.33937,1.03272,6.63354,5.65449,7.61207,1.01082
0.86,1.35127,1.03343,6.62009,5.6415,7.59819,1.01105
0.87,1.36303,1.03408,6.60652,5.62835,7.58424,1.01127
0.88,1.37475,1.03472,6.59283,5.6151,7.57019,1.01149
0.89,1.38646,1.0354,6.57903,5.60175,7.55598,1.01171
0.9,1.39807,1.03606,6.56511,5.58826,7.54167,1.01193
0.91,1.40973,1.03668,6.55107,5.57464,7.52727,1.01213
0.92,1.4212,1.03731,6.53692,5.56089,7.51273,1.01233
0.93,1.43281,1.03794,6.52265,5.54705,7.49808,1.01252
0.94,1.44419,1.03858,6.50826,5.53306,7.48329,1.01273
0.95,1.45551,1.03921,6.49377,5.51896,7.46841,1.01295
0.96,1.46664,1.03985,6.47916,5.50477,7.45342,1.01315
0.97,1.4778,1.04048,6.46444,5.49045,7.43832,1.01336
0.98,1.48893,1.0411,6.4496,5.47602,7.42312,1.01356
0.99,1.50014,1.04168,6.43466,5.46146,7.40787,1.01376
1,1.51113,1.04224,6.4196,5.44676,7.3925,1.01396
1.01,1.52211,1.04278,6.40444,5.43195,7.37704,1.01415
1.02,1.53307,1.04333,6.38916,5.41703,7.36145,1.01434
1.03,1.54389,1.04389,6.37378,5.40202,7.34576,1.01452
1.04,1.55461,1.04446,6.35829,5.38691,7.32994,1.01471
1.05,1.5653,1.04503,6.34269,5.37168,7.31402,1.0149
1.06,1.57592,1.0456,6.32698,5.35636,7.29798,1.01509
1.07,1.5865,1.04616,6.31117,5.34091,7.28186,1.01527
1.08,1.59703,1.04671,6.29526,5.32536,7.26563,1.01545
1.09,1.60764,1.04727,6.27924,5.30969,7.24929,1.01564
1.1,1.61824,1.04783,6.26311,5.29393,7.23282,1.01582
1.11,1.62854,1.04839,6.24687,5.27806,7.21626,1.016
1.12,1.63871,1.04895,6.23054,5.26209,7.1996,1.01618
1.13,1.64884,1.04952,6.2141,5.24601,7.18283,1.01636
1.14,1.65898,1.05011,6.19756,5.22986,7.16594,1.01655
1.15,1.66909,1.05068,6.18092,5.2136,7.14896,1.01673
1.16,1.67899,1.05126,6.16418,5.19723,7.13189,1.01691
1.17,1.68898,1.05186,6.14735,5.18076,7.1147,1.01712
1.18,1.69877,1.05248,6.13041,5.16423,7.09742,1.01732
1.19,1.70833,1.05309,6.11337,5.14757,7.08002,1.01753
1.2,1.71793,1.0537,6.09624,5.13081,7.06255,1.01774
1.21,1.72763,1.05432,6.07902,5.11395,7.04496,1.01795
1.22,1.73708,1.05495,6.06169,5.09701,7.02727,1.01816
1.23,1.74654,1.05558,6.04428,5.07999,7.00947,1.01837
1.24,1.75613,1.05622,6.02677,5.06286,6.99157,1.01857
1.25,1.76554,1.05686,6.00916,5.04566,6.97357,1.01876
1.26,1.77461,1.05753,5.99146,5.02836,6.95544,1.01897
1.27,1.78373,1.05818,5.97367,5.01095,6.93727,1.01919
1.28,1.79272,1.05882,5.95579,4.99348,6.91903,1.01941
1.29,1.80161,1.05948,5.93782,4.97596,6.90073,1.01963
1.3,1.81058,1.06013,5.91976,4.95833,6.88233,1.01985
1.31,1.81949,1.06078,5.90161,4.94061,6.86383,1.02006
1.32,1.82826,1.06142,5.88337,4.92279,6.84524,1.02026
1.33,1.83695,1.06211,5.86504,4.90488,6.8265,1.02049
1.34,1.84557,1.06276,5.84663,4.88686,6.80774,1.02071
1.35,1.85425,1.06341,5.82814,4.86878,6.78889,1.02093
1.36,1.86291,1.06408,5.80955,4.85066,6.76998,1.02116
1.37,1.87143,1.06471,5.79088,4.83243,6.75101,1.02136
1.38,1.87997,1.06537,5.77212,4.81408,6.73187,1.02158
1.39,1.88828,1.066,5.75328,4.79562,6.71267,1.02179
1.4,1.89655,1.06662,5.73436,4.77707,6.6934,1.022
1.41,1.90501,1.06726,5.71535,4.7585,6.67407,1.0222
1.42,1.9131,1.06789,5.69626,4.73988,6.65467,1.02239
1.43,1.92128,1.06855,5.67709,4.72112,6.63514,1.02262
1.44,1.92948,1.06915,5.65784,4.70221,6.61554,1.02282
1.45,1.93767,1.06972,5.6385,4.68324,6.59589,1.023
1.46,1.94568,1.07033,5.61909,4.66427,6.57615,1.02318
1.47,1.95366,1.071,5.59959,4.64522,6.55631,1.02339
1.48,1.96163,1.07158,5.58002,4.626,6.53642,1.02358
1.49,1.96963,1.07207,5.56036,4.60664,6.5165,1.02376
1.5,1.97768,1.0726,5.54063,4.58727,6.49651,1.02393
1.51,1.98551,1.07327,5.52081,4.56787,6.47633,1.02414
1.52,1.99329,1.07383,5.50092,4.54831,6.45611,1.02432
1.53,2.00102,1.07428,5.48095,4.52863,6.43592,1.02448
1.54,2.00862,1.07481,5.4609,4.50894,6.41564,1.02467
1.55,2.01636,1.07543,5.44078,4.48923,6.39521,1.02487
1.56,2.02392,1.07597,5.42058,4.46935,6.37468,1.02504
1.57,2.03141,1.0764,5.4003,4.44936,6.35419,1.02518
1.58,2.03894,1.07699,5.37995,4.42938,6.33357,1.0254
1.59,2.04655,1.07759,5.35952,4.40933,6.31278,1.02557
1.6,2.05409,1.07806,5.33902,4.38915,6.29203,1.02571
1.61,2.06142,1.07859,5.31844,4.36889,6.27122,1.02592
1.62,2.06861,1.07921,5.2978,4.34864,6.25023,1.0261
1.63,2.0758,1.07973,5.27707,4.32826,6.22919,1.02625
1.64,2.08283,1.08024,5.25628,4.30775,6.20817,1.02646
1.65,2.08983,1.08085,5.23542,4.28728,6.18699,1.02665
1.66,2.09675,1.08138,5.21449,4.26672,6.16575,1.02679
1.67,2.10375,1.08192,5.19349,4.24604,6.14451,1.027
1.68,2.11062,1.08253,5.17242,4.22535,6.12313,1.0272
1.69,2.11738,1.08309,5.15128,4.20458,6.10164,1.02734
1.7,2.12413,1.08367,5.13007,4.18369,6.08015,1.02757
1.71,2.13095,1.08427,5.10879,4.16279,6.05854,1.02775
1.72,2.13767,1.08484,5.08745,4.14181,6.03684,1.0279
1.73,2.14447,1.08546,5.06604,4.12074,6.01512,1.02814
1.74,2.15101,1.08606,5.04457,4.09965,5.99331,1.02831
1.75,2.15754,1.08665,5.02302,4.07846,5.97143,1.0285
1.76,2.16397,1.08726,5.00142,4.05718,5.9495,1.02872
1.77,2.17038,1.0878,4.97975,4.03588,5.92754,1.02887
1.78,2.17673,1.0884,4.95801,4.01448,5.90551,1.0291
1.79,2.18298,1.08898,4.93621,3.99305,5.88341,1.02928
1.8,2.18931,1.08954,4.91435,3.97157,5.86126,1.02945
1.81,2.1955,1.09015,4.89243,3.94997,5.83904,1.02968
1.82,2.20174,1.0907,4.87045,3.92837,5.81675,1.02983
1.83,2.20786,1.09129,4.8484,3.90667,5.79443,1.03005
1.84,2.21402,1.09188,4.82629,3.88491,5.77198,1.03023
1.85,2.22004,1.09246,4.80412,3.86315,5.74955,1.03041
1.86,2.22559,1.09306,4.7819,3.84125,5.727,1.03062
1.87,2.23157,1.09362,4.75961,3.81937,5.70443,1.03077
1.88,2.23751,1.09421,4.73727,3.79737,5.68183,1.03099
1.89,2.24358,1.09474,4.71486,3.77529,5.65909,1.03114
1.9,2.24941,1.09531,4.6924,3.75321,5.63643,1.03135
1.91,2.2552,1.09586,4.66988,3.731,5.61357,1.03151
1.92,2.26097,1.0964,4.6473,3.70882,5.59077,1.03169
1.93,2.26684,1.09693,4.62466,3.68648,5.56786,1.03187
1.94,2.27261,1.09748,4.60196,3.66416,5.54487,1.03202
1.95,2.27854,1.09799,4.57921,3.64174,5.52192,1.03221
1.96,2.28422,1.09853,4.55639,3.61925,5.49874,1.03235
1.97,2.28984,1.09907,4.53352,3.59675,5.47569,1.03254
1.98,2.2954,1.09958,4.5106,3.5741,5.4524,1.03267
1.99,2.30112,1.10009,4.48762,3.5515,5.42928,1.03286
2,2.30662,1.10056,4.46458,3.5287,5.4059,1.03299
2.01,2.31211,1.1011,4.44149,3.50599,5.38263,1.03318
2.02,2.3177,1.10156,4.41834,3.48308,5.35918,1.03332
2.03,2.32311,1.10207,4.39514,3.46023,5.33579,1.0335
2.04,2.32857,1.10252,4.37188,3.43721,5.31227,1.03364
2.05,2.33397,1.10301,4.34857,3.41422,5.28874,1.03381
2.06,2.33936,1.10346,4.3252,3.39112,5.26515,1.03396
2.07,2.34422,1.10398,4.30179,3.36801,5.24146,1.03412
2.08,2.34945,1.10443,4.27832,3.34482,5.21776,1.03427
2.09,2.35442,1.10496,4.2548,3.32161,5.19395,1.03444
2.1,2.35944,1.1054,4.23123,3.29831,5.17018,1.03458
2.11,2.36444,1.10592,4.20761,3.275,5.14629,1.03475
2.12,2.36945,1.10638,4.18394,3.25161,5.12239,1.03489
2.13,2.37444,1.10692,4.16023,3.22821,5.09839,1.03507
2.14,2.37953,1.10739,4.13646,3.20474,5.07438,1.03521
2.15,2.38446,1.10792,4.11264,3.18124,5.05029,1.03538
2.16,2.38933,1.10837,4.08877,3.15764,5.0262,1.03553
2.17,2.39417,1.1089,4.06485,3.13405,5.00203,1.0357
2.18,2.39891,1.10936,4.04089,3.11034,4.97781,1.03585
2.19,2.4037,1.10991,4.01688,3.08668,4.95354,1.03602
2.2,2.40834,1.11037,3.99282,3.06285,4.92921,1.03618
2.21,2.41305,1.11092,3.96871,3.03913,4.90486,1.03634
2.22,2.41768,1.11139,3.94456,3.0152,4.88045,1.03651
2.23,2.42223,1.11196,3.92036,2.9914,4.85596,1.03666
2.24,2.42682,1.11242,3.89612,2.96738,4.83149,1.03683
2.25,2.43127,1.11298,3.87183,2.9435,4.80692,1.03698
2.26,2.43567,1.11345,3.84749,2.91939,4.78236,1.03716
2.27,2.44005,1.11399,3.82312,2.89538,4.75772,1.03731
2.28,2.44444,1.11447,3.7987,2.8712,4.73304,1.03748
2.29,2.44883,1.11499,3.77423,2.84707,4.70832,1.03764
2.3,2.4532,1.11551,3.74972,2.82286,4.68353,1.0378
2.31,2.45736,1.11599,3.72517,2.79857,4.65875,1.03797
2.32,2.46147,1.11653,3.70058,2.77434,4.63387,1.03811
2.33,2.46571,1.11699,3.67594,2.74991,4.60901,1.0383
2.34,2.46992,1.11753,3.65126,2.72565,4.5841,1.03844
2.35,2.47408,1.11798,3.62654,2.70114,4.55916,1.03861
2.36,2.47812,1.11851,3.60178,2.67675,4.53415,1.03876
2.37,2.48198,1.11896,3.57699,2.65223,4.50914,1.0389
2.38,2.48615,1.11945,3.55215,2.62765,4.48404,1.03907
2.39,2.48969,1.11995,3.52727,2.60313,4.45893,1.0392
2.4,2.49389,1.12039,3.50235,2.57843,4.4338,1.03937
2.41,2.49796,1.12095,3.47739,2.55386,4.40857,1.03952
2.42,2.50192,1.12133,3.45239,2.52907,4.3834,1.03966
2.43,2.50586,1.12187,3.42735,2.50435,4.3581,1.03983
2.44,2.50977,1.12229,3.40228,2.47957,4.33284,1.03995
2.45,2.51359,1.12272,3.37716,2.45468,4.30752,1.04011
2.46,2.51732,1.12326,3.35201,2.4299,4.28211,1.04025
2.47,2.521,1.12359,3.32682,2.40491,4.25677,1.04037
2.48,2.52471,1.12413,3.30159,2.38,4.23127,1.04054
2.49,2.52801,1.12454,3.27633,2.35501,4.20582,1.04066
2.5,2.53148,1.12494,3.25103,2.32992,4.18032,1.0408
2.51,2.53498,1.12549,3.2257,2.30495,4.15472,1.04095
2.52,2.53851,1.1258,3.20033,2.27979,4.12923,1.04105
2.53,2.54215,1.12633,3.17493,2.25468,4.10354,1.04122
2.54,2.54562,1.12678,3.14949,2.22955,4.07791,1.04135
2.55,2.54893,1.12708,3.12402,2.20426,4.05231,1.04145
2.56,2.55232,1.12764,3.09851,2.1791,4.02652,1.04161
2.57,2.55568,1.12797,3.07297,2.15377,4.00087,1.04173
2.58,2.55898,1.12836,3.0474,2.12842,3.97509,1.04185
2.59,2.56229,1.12888,3.0218,2.10313,3.94921,1.042
2.6,2.56562,1.12915,2.99616,2.07766,3.92349,1.04211
2.61,2.56868,1.12963,2.97049,2.05227,3.89756,1.04225
2.62,2.57172,1.1301,2.94479,2.02685,3.87163,1.0424
2.63,2.57492,1.13036,2.91905,2.00129,3.84582,1.04249
2.64,2.5779,1.13091,2.89329,1.97586,3.81977,1.04265
2.65,2.58069,1.13132,2.8675,1.95031,3.7938,1.04279
2.66,2.58353,1.13161,2.84168,1.92469,3.76786,1.04287
2.67,2.5862,1.13217,2.81583,1.89917,3.74172,1.04304
2.68,2.58908,1.13253,2.78995,1.8735,3.71569,1.04317
2.69,2.59174,1.13288,2.76405,1.84783,3.68961,1.04326
2.7,2.59428,1.13346,2.73812,1.82224,3.66339,1.04343
2.71,2.59681,1.13381,2.71217,1.79648,3.63729,1.04356
2.72,2.59949,1.1342,2.68619,1.77077,3.61112,1.04366
2.73,2.6019,1.13476,2.66018,1.74509,3.58484,1.04384
2.74,2.60419,1.1351,2.63415,1.71926,3.55868,1.04396
2.75,2.60639,1.1355,2.6081,1.69352,3.53245,1.04405
2.76,2.60853,1.13606,2.58203,1.66778,3.50611,1.04423
2.77,2.61076,1.1364,2.55593,1.64187,3.47989,1.04435
2.78,2.61293,1.13681,2.52981,1.61607,3.45357,1.04444
2.79,2.61498,1.13736,2.50367,1.59025,3.42718,1.04462
2.8,2.61686,1.1377,2.47752,1.56427,3.40088,1.04475
2.81,2.61876,1.13813,2.45134,1.53843,3.37451,1.04484
2.82,2.62063,1.13868,2.42514,1.51256,3.34805,1.04502
2.83,2.62223,1.13904,2.39893,1.48654,3.3217,1.04516
2.84,2.62387,1.13945,2.3727,1.46066,3.29532,1.04525
2.85,2.62531,1.13998,2.34645,1.43475,3.26883,1.04541
2.86,2.62669,1.14036,2.3202,1.4087,3.24243,1.04556
2.87,2.62809,1.14076,2.29392,1.38276,3.21602,1.04565
2.88,2.62926,1.14129,2.26764,1.35683,3.18947,1.04579
2.89,2.63029,1.14168,2.24134,1.33073,3.16303,1.04595
2.9,2.63123,1.14211,2.21503,1.30477,3.13656,1.04605
2.91,2.63201,1.14263,2.18872,1.27883,3.11,1.04618
2.92,2.63286,1.14305,2.16239,1.25273,3.08351,1.04634
2.93,2.63363,1.14348,2.13606,1.22674,3.05705,1.04646
2.94,2.63402,1.14397,2.10972,1.20083,3.03052,1.04656
2.95,2.63444,1.14444,2.08338,1.17474,3.00398,1.04673
2.96,2.63471,1.14485,2.05704,1.14871,2.97751,1.04685
2.97,2.63483,1.14536,2.03069,1.12282,2.95099,1.04696
2.98,2.63467,1.14586,2.00434,1.09677,2.92441,1.04711
2.99,2.63434,1.14627,1.978,1.07073,2.89797,1.04725
3,2.63387,1.1468,1.95166,1.04488,2.87147,1.04736
3.01,2.63307,1.14733,1.92532,1.01889,2.8449,1.04752
3.02,2.63216,1.14779,1.899,0.992873,2.81843,1.04768
3.03,2.63106,1.14834,1.87268,0.967077,2.79196,1.0478
3.04,2.62953,1.14891,1.84638,0.941212,2.76544,1.04794
3.05,2.62779,1.14944,1.82009,0.915279,2.73896,1.04811
3.06,2.62573,1.15001,1.79383,0.88954,2.71255,1.04824
3.07,2.62343,1.15063,1.76758,0.863832,2.68608,1.04837
3.08,2.62071,1.15123,1.74136,0.838012,2.65965,1.04856
3.09,2.61764,1.15186,1.71517,0.81239,2.63329,1.04871
3.1,2.61423,1.15254,1.68901,0.786862,2.6069,1.04884
3.11,2.61032,1.15324,1.66289,0.761238,2.58055,1.04905
3.12,2.60607,1.15396,1.63681,0.73581,2.55428,1.04922
3.13,2.60128,1.15473,1.61077,0.710523,2.52804,1.04937
3.14,2.5961,1.15555,1.58478,0.685177,2.50178,1.04959
3.15,2.5903,1.15637,1.55885,0.660005,2.47566,1.04978
3.16,2.58396,1.15728,1.53298,0.635031,2.44955,1.04995
3.17,2.57699,1.15822,1.50718,0.610001,2.42344,1.05018
3.18,2.56948,1.15916,1.48144,0.585197,2.39753,1.05039
3.19,2.56134,1.16025,1.45579,0.560638,2.37161,1.05059
3.2,2.55242,1.16136,1.43022,0.536017,2.3457,1.05085
3.21,2.54268,1.16253,1.40475,0.511737,2.32003,1.0511
3.22,2.53213,1.16384,1.37937,0.4877,2.29436,1.05133
3.23,2.52065,1.1652,1.35411,0.463676,2.26877,1.05164
3.24,2.50827,1.16669,1.32896,0.440133,2.2434,1.05193
3.25,2.49479,1.16829,1.30395,0.416738,2.218,1.0522
3.26,2.48014,1.17005,1.27907,0.393542,2.19276,1.05258
3.27,2.46431,1.17197,1.25435,0.370927,2.16775,1.05291
3.28,2.44714,1.17404,1.22979,0.348356,2.14263,1.05327
3.29,2.42863,1.17636,1.20541,0.32637,2.11785,1.05371
3.3,2.40851,1.1788,1.18123,0.304788,2.09323,1.05411
3.31,2.38688,1.18157,1.15725,0.283456,2.06857,1.05462
3.32,2.36344,1.18458,1.1335,0.26299,2.04439,1.0551
3.33,2.33828,1.18773,1.10999,0.242647,2.0202,1.05563
3.34,2.31118,1.19145,1.08674,0.223281,1.99629,1.05623
3.35,2.28192,1.19521,1.06377,0.204292,1.97269,1.0568
3.36,2.25065,1.19966,1.04111,0.186123,1.94916,1.05753
3.37,2.21696,1.20438,1.01877,0.168794,1.92609,1.05823
3.38,2.18076,1.20977,0.99678,0.152335,1.90315,1.05904
3.39,2.14206,1.21561,0.975166,0.136762,1.88053,1.05988
3.4,2.10081,1.22213,0.953951,0.122268,1.85832,1.06084
3.41,2.05632,1.22936,0.933164,0.108889,1.8363,1.06181
3.42,2.0089,1.23731,0.912838,0.0967975,1.81491,1.06292
3.43,1.9582,1.24593,0.893002,0.0855334,1.79356,1.06404
3.44,1.90403,1.25583,0.873691,0.0762369,1.77293,1.06538
3.45,1.84632,1.26618,0.854939,0.0674856,1.75246,1.06674
3.46,1.78488,1.27784,0.836784,0.0606556,1.73267,1.06828
3.47,1.71934,1.2903,0.819262,0.0548127,1.71329,1.06997
3.48,1.64971,1.3034,0.802416,0.0498702,1.69448,1.07179
3.49,1.57577,1.3173,0.78629,0.0457444,1.67612,1.07385
3.5,1.49709,1.33133,0.770924,0.0417046,1.65829,1.0761
3.51,1.41398,1.34526,0.756366,0.0378133,1.64136,1.07859
3.52,1.32666,1.35978,0.74266,0.0343201,1.62479,1.08135
3.53,1.23509,1.37426,0.729851,0.031082,1.60902,1.08425
3.54,1.139,1.38885,0.717978,0.0281707,1.59402,1.08736
3.55,1.03873,1.40333,0.707085,0.0254545,1.5796,1.09049
3.56,0.934517,1.4177,0.697215,0.0230778,1.56609,1.09376
3.57,0.827291,1.43216,0.688402,0.020966,1.55337,1.09733
3.58,0.718185,1.44675,0.680671,0.0191411,1.54129,1.10109
3.59,0.608334,1.46038,0.674034,0.0175902,1.53043,1.10466
3.6,0.498322,1.47313,0.668498,0.0162158,1.52028,1.10783
3.61,0.388853,1.48453,0.664059,0.0150917,1.51112,1.11045
3.62,0.28093,1.49442,0.660707,0.0139979,1.50295,1.11255
3.63,0.175113,1.50306,0.658424,0.0130641,1.49567,1.11422
3.64,0.0718998,1.50918,0.657186,0.012277,1.49023,1.11524
3.65,-0.0282685,1.51294,0.656966,0.0115531,1.48668,1.11588
3.66,-0.125053,1.51426,0.65773,0.0109065,1.48492,1.11602
3.67,-0.218451,1.51464,0.659446,0.0103074,1.48314,1.11541
3.68,-0.308185,1.51337,0.662078,0.0097806,1.48235,1.11427
3.69,-0.394126,1.51023,0.665586,0.00930926,1.48275,1.11262
3.7,-0.476931,1.50434,0.669939,0.00888302,1.48522,1.11046
3.71,-0.555898,1.49447,0.675101,0.00852836,1.49111,1.10784
3.72,-0.632121,1.4827,0.681038,0.00822636,1.49867,1.10494
3.73,-0.70524,1.4681,0.687722,0.00800449,1.50844,1.1014
3.74,-0.775512,1.45148,0.695123,0.00787307,1.52019,1.09755
3.75,-0.842985,1.43382,0.703212,0.00778709,1.53279,1.09329
3.76,-0.907596,1.41529,0.711962,0.00778442,1.54668,1.08899
3.77,-0.969625,1.39576,0.721345,0.00783417,1.5617,1.08441
