time,velocity,ratio,centerX,Xmax,Xmin,Ymax
0,0,1,21,20,22,1
0.01,0.0198194,1,20.9999,19.9999,21.9999,1
0.02,0.0395647,1,20.9996,19.9996,21.9996,1
0.03,0.0592087,1.00001,20.9991,19.9991,21.9991,0.999997
0.04,0.0786794,1.00003,20.9984,19.9985,21.9984,0.999996
0.05,0.0980805,1.00001,20.9975,19.9976,21.9975,0.999996
0.06,0.117333,1.00001,20.9965,19.9965,21.9965,0.999998
0.07,0.136489,1.00003,20.9952,19.9952,21.9952,0.999999
0.08,0.155631,1.00005,20.9937,19.9938,21.9937,1
0.09,0.174803,1.00008,20.9921,19.9922,21.992,1
0.1,0.193727,1.00014,20.9903,19.9904,21.9902,1.00003
0.11,0.212554,1.00021,20.9882,19.9884,21.9881,1.00006
0.12,0.231274,1.00028,20.986,19.9862,21.9858,1.00008
0.13,0.249884,1.00037,20.9836,19.9839,21.9834,1.0001
0.14,0.268422,1.00045,20.981,19.9814,21.9807,1.00012
0.15,0.286827,1.00052,20.9782,19.9787,21.9779,1.00014
0.16,0.305136,1.00062,20.9753,19.9758,21.9749,1.00019
0.17,0.323352,1.00078,20.9722,19.9727,21.9717,1.00026
0.18,0.341455,1.00098,20.9688,19.9695,21.9682,1.00033
0.19,0.359507,1.00118,20.9653,19.9661,21.9645,1.00039
0.2,0.377382,1.00143,20.9616,19.9626,21.9606,1.00044
0.21,0.395174,1.00168,20.9578,19.9589,21.9566,1.00053
0.22,0.412851,1.00195,20.9537,19.955,21.9524,1.00064
0.23,0.430381,1.00226,20.9495,19.951,21.948,1.00074
0.24,0.447894,1.00259,20.9451,19.9468,21.9433,1.00084
0.25,0.465255,1.00298,20.9406,19.9424,21.9385,1.00098
0.26,0.482583,1.00335,20.9358,19.9379,21.9335,1.00111
0.27,0.49969,1.00376,20.9309,19.9333,21.9283,1.00124
0.28,0.51669,1.00427,20.9259,19.9285,21.9228,1.00139
0.29,0.533576,1.00478,20.9206,19.9236,21.9172,1.00155
0.3,0.550319,1.00528,20.9152,19.9185,21.9114,1.00171
0.31,0.567022,1.00584,20.9096,19.9132,21.9054,1.00192
0.32,0.583573,1.00642,20.9039,19.9078,21.8993,1.00211
0.33,0.59998,1.00697,20.8979,19.9023,21.8929,1.00228
0.34,0.616315,1.00765,20.8919,19.8966,21.8864,1.00252
0.35,0.632519,1.00832,20.8856,19.8908,21.8797,1.00273
0.36,0.648607,1.00897,20.8792,19.8848,21.8729,1.00295
0.37,0.664495,1.00971,20.8726,19.8786,21.8657,1.00319
0.38,0.680154,1.01039,20.8659,19.8724,21.8586,1.0034
0.39,0.696084,1.01114,20.859,19.866,21.8512,1.00368
0.4,0.711601,1.01184,20.852,19.8593,21.8437,1.0039
0.41,0.727133,1.01262,20.8448,19.8526,21.836,1.00418
0.42,0.742422,1.01341,20.8375,19.8458,21.828,1.00442
0.43,0.757727,1.01416,20.83,19.8388,21.8201,1.00469
0.44,0.772876,1.01497,20.8223,19.8316,21.8118,1.00494
0.45,0.787968,1.01574,20.8145,19.8243,21.8036,1.00521
0.46,0.80294,1.01654,20.8066,19.8168,21.795,1.00546
0.47,0.817869,1.01734,20.7985,19.8093,21.7865,1.00573
0.48,0.832646,1.01812,20.7902,19.8015,21.7777,1.00599
0.49,0.84737,1.01891,20.7818,19.7936,21.7688,1.00626
0.5,0.861963,1.01968,20.7733,19.7856,21.7597,1.0065
0.51,0.876504,1.02045,20.7646,19.7774,21.7505,1.00677
0.52,0.890947,1.02125,20.7557,19.769,21.7411,1.00701
0.53,0.905295,1.02199,20.7468,19.7605,21.7318,1.00728
0.54,0.919563,1.02275,20.7376,19.7519,21.7221,1.00752
0.55,0.933699,1.02348,20.7284,19.7431,21.7124,1.00777
0.56,0.947796,1.02425,20.719,19.7342,21.7026,1.00802
0.57,0.961889,1.02494,20.7094,19.7252,21.6926,1.00824
0.58,0.97584,1.02569,20.6997,19.716,21.6824,1.0085
0.59,0.989711,1.02642,20.6899,19.7066,21.6721,1.00873
0.6,1.00352,1.02709,20.6799,19.6971,21.6618,1.00895
0.61,1.01727,1.0278,20.6698,19.6874,21.6512,1.00919
0.62,1.03091,1.02849,20.6596,19.6777,21.6406,1.00941
0.63,1.04444,1.02914,20.6492,19.6677,21.6298,1.00962
0.64,1.05814,1.02985,20.6387,19.6576,21.6188,1.00987
0.65,1.07134,1.03055,20.6281,19.6475,21.6078,1.01009
0.66,1.08467,1.03115,20.6173,19.6371,21.5966,1.01029
0.67,1.09783,1.03188,20.6064,19.6266,21.5852,1.01053
0.68,1.11104,1.03255,20.5953,19.616,21.5738,1.01074
0.69,1.12424,1.03313,20.5842,19.6052,21.5623,1.01094
0.7,1.13724,1.03387,20.5729,19.5944,21.5505,1.01117
0.71,1.15022,1.03452,20.5614,19.5833,21.5387,1.0114
0.72,1.163,1.03516,20.5499,19.5722,21.5267,1.01162
0.73,1.17573,1.03582,20.5382,19.5609,21.5146,1.01181
0.74,1.18835,1.03655,20.5263,19.5496,21.5023,1.01205
0.75,1.20093,1.03724,20.5144,19.538,21.4899,1.01228
0.76,1.21341,1.03794,20.5023,19.5264,21.4774,1.01251
0.77,1.22592,1.03864,20.4901,19.5147,21.4648,1.01272
0.78,1.23823,1.03939,20.4778,19.5028,21.4519,1.01296
0.79,1.25041,1.04015,20.4654,19.4908,21.439,1.01322
0.8,1.26243,1.04089,20.4528,19.4787,21.426,1.01347
0.81,1.2745,1.04162,20.4401,19.4665,21.4129,1.01371
0.82,1.28643,1.04239,20.4273,19.4542,21.3996,1.01395
0.83,1.29822,1.0432,20.4144,19.4417,21.3861,1.0142
0.84,1.31001,1.04402,20.4014,19.4292,21.3726,1.01448
0.85,1.32175,1.04479,20.3882,19.4164,21.359,1.01476
0.86,1.33345,1.04559,20.3749,19.4037,21.3452,1.01503
0.87,1.34482,1.04646,20.3615,19.3908,21.3313,1.0153
0.88,1.3561,1.04732,20.348,19.3778,21.3172,1.01557
0.89,1.36737,1.04819,20.3344,19.3647,21.303,1.01584
0.9,1.37854,1.04906,20.3207,19.3515,21.2888,1.01614
0.91,1.38959,1.04996,20.3069,19.3382,21.2744,1.01645
0.92,1.40052,1.0509,20.2929,19.3249,21.2599,1.01675
0.93,1.41156,1.05182,20.2788,19.3114,21.2452,1.01705
0.94,1.4223,1.05275,20.2647,19.2977,21.2305,1.01735
0.95,1.43293,1.05366,20.2504,19.284,21.2157,1.01765
0.96,1.44342,1.05459,20.236,19.2702,21.2007,1.01794
0.97,1.45401,1.05552,20.2215,19.2563,21.1856,1.01824
0.98,1.46452,1.05646,20.2069,19.2422,21.1705,1.01855
0.99,1.47486,1.05742,20.1923,19.2281,21.1552,1.01886
1,1.48538,1.05839,20.1775,19.2139,21.1398,1.01917
1.01,1.49558,1.05935,20.1625,19.1997,21.1244,1.01948
1.02,1.50569,1.0603,20.1475,19.1852,21.1088,1.01979
1.03,1.5159,1.06124,20.1324,19.1707,21.0932,1.0201
1.04,1.52579,1.06219,20.1172,19.1561,21.0775,1.02042
1.05,1.5357,1.06313,20.1019,19.1415,21.0617,1.02073
1.06,1.54556,1.06407,20.0865,19.1266,21.0458,1.02104
1.07,1.55535,1.06499,20.071,19.1117,21.0298,1.02135
1.08,1.56506,1.06594,20.0554,19.0967,21.0136,1.02166
1.09,1.57505,1.06687,20.0397,19.0816,20.9974,1.02196
1.1,1.58463,1.0678,20.0239,19.0664,20.9811,1.02225
1.11,1.59417,1.06869,20.008,19.051,20.9647,1.02254
1.12,1.60361,1.06959,19.992,19.0356,20.9482,1.02283
1.13,1.61307,1.07046,19.976,19.0201,20.9316,1.02312
1.14,1.62259,1.07133,19.9598,19.0045,20.915,1.02341
1.15,1.63184,1.07218,19.9435,18.9887,20.8983,1.02369
1.16,1.64128,1.07304,19.9271,18.9729,20.8815,1.02398
1.17,1.65051,1.07389,19.9107,18.957,20.8646,1.02425
1.18,1.65972,1.07472,19.8941,18.941,20.8476,1.02452
1.19,1.66879,1.07556,19.8775,18.9249,20.8305,1.02478
1.2,1.67805,1.07638,19.8608,18.9087,20.8133,1.02504
1.21,1.68707,1.0772,19.8439,18.8924,20.796,1.0253
1.22,1.6961,1.07797,19.827,18.876,20.7787,1.02555
1.23,1.705,1.07876,19.81,18.8595,20.7613,1.02581
1.24,1.71412,1.07953,19.7929,18.8429,20.7438,1.02606
1.25,1.72298,1.08029,19.7757,18.8262,20.7262,1.0263
1.26,1.7317,1.08102,19.7585,18.8094,20.7086,1.02654
1.27,1.74039,1.08179,19.7411,18.7925,20.6908,1.0268
1.28,1.74897,1.08256,19.7237,18.7755,20.673,1.02706
1.29,1.75747,1.08331,19.7061,18.7584,20.6551,1.02732
1.3,1.76598,1.08407,19.6885,18.7413,20.6371,1.02756
1.31,1.77458,1.08481,19.6708,18.7241,20.619,1.0278
1.32,1.78295,1.08556,19.653,18.7068,20.6008,1.02803
1.33,1.7914,1.0863,19.6352,18.6893,20.5825,1.02826
1.34,1.7997,1.08704,19.6172,18.6718,20.5641,1.02849
1.35,1.808,1.0878,19.5992,18.6542,20.5457,1.02876
1.36,1.81616,1.08857,19.581,18.6366,20.5272,1.02903
1.37,1.8242,1.08934,19.5628,18.6188,20.5086,1.02928
1.38,1.83243,1.09014,19.5446,18.6011,20.4898,1.02951
1.39,1.84057,1.09092,19.5262,18.5832,20.471,1.02975
1.4,1.84847,1.09169,19.5078,18.5652,20.4522,1.02999
1.41,1.85631,1.09249,19.4892,18.5472,20.4332,1.03026
1.42,1.86392,1.09328,19.4706,18.529,20.4142,1.03053
1.43,1.87156,1.09404,19.452,18.5108,20.3951,1.03078
1.44,1.87912,1.09484,19.4332,18.4925,20.3759,1.03101
1.45,1.88664,1.09565,19.4144,18.4742,20.3567,1.03127
1.46,1.89409,1.09646,19.3955,18.4558,20.3374,1.03155
1.47,1.90147,1.09729,19.3765,18.4373,20.318,1.03183
1.48,1.90874,1.09813,19.3574,18.4187,20.2984,1.03209
1.49,1.916,1.09895,19.3383,18.4,20.2788,1.03234
1.5,1.92347,1.0998,19.3191,18.3814,20.2592,1.03261
1.51,1.93077,1.10067,19.2999,18.3626,20.2395,1.0329
1.52,1.93776,1.10154,19.2805,18.3438,20.2197,1.03318
1.53,1.94467,1.1024,19.2611,18.3249,20.1998,1.03344
1.54,1.95158,1.10325,19.2416,18.3059,20.1798,1.0337
1.55,1.95838,1.10411,19.2221,18.2869,20.1599,1.034
1.56,1.96513,1.10496,19.2025,18.2678,20.1398,1.03428
1.57,1.9719,1.1058,19.1828,18.2485,20.1197,1.03454
1.58,1.9786,1.10665,19.163,18.2293,20.0995,1.03481
1.59,1.98525,1.10751,19.1432,18.21,20.0792,1.0351
1.6,1.9918,1.10837,19.1233,18.1906,20.0589,1.03538
1.61,1.99832,1.10917,19.1034,18.1711,20.0385,1.03563
1.62,2.0049,1.11003,19.0834,18.1516,20.0181,1.03591
1.63,2.01153,1.11089,19.0633,18.1321,19.9976,1.0362
1.64,2.01787,1.11172,19.0431,18.1125,19.9771,1.03646
1.65,2.02423,1.11253,19.0229,18.0927,19.9564,1.03672
1.66,2.03063,1.11339,19.0026,18.0729,19.9357,1.03701
1.67,2.03699,1.11423,18.9823,18.0532,19.915,1.03726
1.68,2.04322,1.115,18.9619,18.0332,19.8942,1.03751
1.69,2.04962,1.1158,18.9414,18.0132,19.8734,1.03778
1.7,2.05581,1.11663,18.9209,17.9932,19.8525,1.03804
1.71,2.0619,1.1174,18.9003,17.9732,19.8315,1.03827
1.72,2.06814,1.11818,18.8797,17.9529,19.8105,1.03854
1.73,2.07429,1.11895,18.859,17.9327,19.7894,1.03878
1.74,2.08049,1.11971,18.8382,17.9125,19.7683,1.039
1.75,2.08648,1.12046,18.8174,17.892,19.7471,1.03927
1.76,2.09243,1.1212,18.7965,17.8716,19.7259,1.0395
1.77,2.09823,1.12196,18.7755,17.8512,19.7046,1.03972
1.78,2.1041,1.12273,18.7545,17.8306,19.6832,1.03998
1.79,2.10994,1.12341,18.7334,17.81,19.6618,1.0402
1.8,2.11588,1.12419,18.7123,17.7894,19.6403,1.04043
1.81,2.12177,1.12493,18.6911,17.7686,19.6188,1.04067
1.82,2.1275,1.12555,18.6699,17.7477,19.5973,1.04088
1.83,2.1332,1.12635,18.6486,17.7269,19.5756,1.04111
1.84,2.1389,1.12703,18.6272,17.706,19.5539,1.04134
1.85,2.14451,1.12763,18.6058,17.6849,19.5322,1.04152
1.86,2.15043,1.12845,18.5843,17.6639,19.5103,1.04176
1.87,2.15607,1.12907,18.5628,17.6428,19.4885,1.04197
1.88,2.16173,1.12971,18.5412,17.6216,19.4666,1.04217
1.89,2.16719,1.13049,18.5196,17.6004,19.4445,1.04241
1.9,2.1726,1.13105,18.4979,17.579,19.4226,1.04259
1.91,2.17803,1.13179,18.4761,17.5577,19.4005,1.04282
1.92,2.18344,1.13248,18.4543,17.5363,19.3783,1.04304
1.93,2.18888,1.13304,18.4325,17.5147,19.3562,1.04322
1.94,2.19418,1.13382,18.4105,17.4933,19.3339,1.04347
1.95,2.19958,1.13439,18.3886,17.4717,19.3117,1.04365
1.96,2.20481,1.13508,18.3665,17.45,19.2893,1.04388
1.97,2.21011,1.13579,18.3445,17.4284,19.2669,1.04409
1.98,2.21537,1.13635,18.3223,17.4066,19.2445,1.04428
1.99,2.22045,1.13712,18.3002,17.3848,19.2219,1.04452
2,2.22547,1.13771,18.2779,17.3629,19.1994,1.04469
2.01,2.2306,1.13843,18.2557,17.341,19.1768,1.04495
2.02,2.23554,1.13913,18.2333,17.3191,19.1541,1.04514
2.03,2.24054,1.13975,18.211,17.297,19.1314,1.04537
2.04,2.24542,1.14053,18.1885,17.2751,19.1086,1.04559
2.05,2.25023,1.14113,18.166,17.2529,19.0858,1.04579
2.06,2.25501,1.14187,18.1435,17.2308,19.0629,1.04603
2.07,2.2599,1.14252,18.1209,17.2087,19.0401,1.04621
2.08,2.26463,1.14321,18.0983,17.1864,19.0171,1.04647
2.09,2.26958,1.14394,18.0757,17.1642,18.9941,1.04665
2.1,2.27417,1.14462,18.0529,17.1418,18.9711,1.04691
2.11,2.27877,1.14537,18.0302,17.1195,18.9479,1.0471
2.12,2.28338,1.14606,18.0074,17.0971,18.9248,1.04734
2.13,2.28794,1.14679,17.9845,17.0746,18.9016,1.04756
2.14,2.29241,1.14749,17.9616,17.0521,18.8783,1.04778
2.15,2.29679,1.14823,17.9387,17.0296,18.855,1.04801
2.16,2.30125,1.14894,17.9157,17.007,18.8317,1.04822
2.17,2.30565,1.14965,17.8926,16.9843,18.8083,1.04847
2.18,2.31008,1.15037,17.8696,16.9618,18.7849,1.04866
2.19,2.31436,1.15105,17.8464,16.9389,18.7615,1.04891
2.2,2.3186,1.15179,17.8233,16.9163,18.738,1.0491
2.21,2.32285,1.15247,17.8001,16.8934,18.7144,1.04935
2.22,2.3272,1.15318,17.7768,16.8706,18.6908,1.04953
2.23,2.33141,1.15389,17.7535,16.8476,18.6672,1.04978
2.24,2.33557,1.15456,17.7302,16.8247,18.6435,1.04996
2.25,2.33969,1.15527,17.7068,16.8017,18.6198,1.0502
2.26,2.34372,1.15592,17.6834,16.7787,18.5961,1.05038
2.27,2.34775,1.15662,17.6599,16.7556,18.5723,1.05063
2.28,2.35186,1.15725,17.6365,16.7325,18.5485,1.0508
2.29,2.35604,1.15796,17.6129,16.7093,18.5247,1.05104
2.3,2.36018,1.15854,17.5893,16.6861,18.5008,1.05121
2.31,2.36416,1.15925,17.5657,16.6629,18.4769,1.05144
2.32,2.3681,1.15982,17.5421,16.6396,18.453,1.05161
2.33,2.372,1.16052,17.5184,16.6163,18.429,1.05184
2.34,2.3761,1.16108,17.4946,16.5929,18.405,1.05201
2.35,2.37996,1.16175,17.4708,16.5695,18.3809,1.05223
2.36,2.3838,1.16233,17.447,16.546,18.3569,1.0524
2.37,2.38775,1.16298,17.4232,16.5225,18.3327,1.05261
2.38,2.39166,1.16354,17.3993,16.499,18.3086,1.05278
2.39,2.39555,1.16418,17.3753,16.4753,18.2843,1.05298
2.4,2.39929,1.16473,17.3514,16.4517,18.2602,1.05316
2.41,2.40312,1.16534,17.3273,16.428,18.2358,1.05334
2.42,2.4069,1.16592,17.3033,16.4044,18.2116,1.05353
2.43,2.41058,1.16648,17.2792,16.3806,18.1872,1.05368
2.44,2.41438,1.16707,17.2551,16.3568,18.1629,1.05388
2.45,2.41805,1.1676,17.2309,16.3329,18.1384,1.05403
2.46,2.42176,1.16822,17.2067,16.3091,18.114,1.05423
2.47,2.42535,1.16873,17.1825,16.2852,18.0895,1.05439
2.48,2.42901,1.16937,17.1582,16.2613,18.0649,1.05457
2.49,2.43279,1.16987,17.1339,16.2372,18.0404,1.05474
2.5,2.43643,1.17048,17.1096,16.2133,18.0158,1.05491
2.51,2.44012,1.17098,17.0852,16.1891,17.9912,1.05508
2.52,2.44376,1.17158,17.0608,16.1651,17.9665,1.05523
2.53,2.44733,1.17209,17.0363,16.1409,17.9418,1.05542
2.54,2.45093,1.17266,17.0118,16.1167,17.917,1.05557
2.55,2.45438,1.1732,16.9873,16.0926,17.8923,1.05575
2.56,2.45794,1.17373,16.9627,16.0683,17.8675,1.05591
2.57,2.46138,1.17432,16.9381,16.044,17.8427,1.05609
2.58,2.46471,1.17482,16.9135,16.0196,17.8178,1.05625
2.59,2.46821,1.17541,16.8888,15.9953,17.7928,1.0564
2.6,2.47155,1.17588,16.8642,15.9709,17.768,1.05659
2.61,2.47491,1.1765,16.8394,15.9464,17.7429,1.05675
2.62,2.47819,1.177,16.8147,15.922,17.7179,1.05693
2.63,2.48152,1.17756,16.7899,15.8974,17.6928,1.0571
2.64,2.48501,1.17811,16.765,15.873,17.6678,1.05725
2.65,2.4882,1.17858,16.7402,15.8483,17.6427,1.05743
2.66,2.49146,1.17921,16.7153,15.8238,17.6175,1.05759
2.67,2.49459,1.17967,16.6903,15.7991,17.5924,1.05776
2.68,2.49768,1.18029,16.6654,15.7744,17.5671,1.05793
2.69,2.50105,1.18083,16.6404,15.7498,17.5419,1.05809
2.7,2.50415,1.18133,16.6154,15.725,17.5166,1.05827
2.71,2.50735,1.18197,16.5903,15.7003,17.4913,1.05843
2.72,2.51038,1.18243,16.5652,15.6754,17.466,1.0586
2.73,2.51339,1.18306,16.5401,15.6507,17.4406,1.05877
2.74,2.51646,1.18358,16.5149,15.6258,17.4152,1.05892
2.75,2.51932,1.1841,16.4898,15.6009,17.3898,1.05911
2.76,2.52228,1.18473,16.4646,15.5761,17.3643,1.05927
2.77,2.52527,1.1852,16.4393,15.551,17.3388,1.05943
2.78,2.52815,1.18582,16.4141,15.5261,17.3133,1.05961
2.79,2.53108,1.18635,16.3888,15.5011,17.2877,1.05976
2.8,2.53401,1.18685,16.3634,15.476,17.2622,1.05994
2.81,2.53687,1.18746,16.3381,15.4511,17.2366,1.06011
2.82,2.5396,1.18793,16.3127,15.4259,17.2109,1.06025
2.83,2.54238,1.18851,16.2873,15.4008,17.1853,1.06043
2.84,2.5452,1.18905,16.2619,15.3757,17.1596,1.0606
2.85,2.5479,1.1895,16.2364,15.3504,17.1339,1.06074
2.86,2.55067,1.1901,16.2109,15.3253,17.1082,1.06092
2.87,2.55334,1.19057,16.1854,15.3,17.0825,1.06107
2.88,2.55617,1.19108,16.1598,15.2747,17.0567,1.06123
2.89,2.55898,1.19165,16.1343,15.2495,17.0309,1.0614
2.9,2.56166,1.19206,16.1087,15.2241,17.0051,1.06153
2.91,2.56444,1.19262,16.083,15.1988,16.9792,1.06169
2.92,2.56705,1.19315,16.0574,15.1734,16.9533,1.06186
2.93,2.56977,1.19357,16.0317,15.1479,16.9274,1.06198
2.94,2.57234,1.19413,16.006,15.1226,16.9015,1.06215
2.95,2.57495,1.1946,15.9802,15.0971,16.8756,1.06232
2.96,2.57751,1.19505,15.9545,15.0715,16.8496,1.06244
2.97,2.58013,1.1956,15.9287,15.0461,16.8236,1.06262
2.98,2.58279,1.19602,15.9029,15.0205,16.7976,1.06276
2.99,2.58549,1.19646,15.877,14.9949,16.7716,1.06288
3,2.58799,1.19698,15.8512,14.9694,16.7456,1.06304
3.01,2.59052,1.19741,15.8253,14.9437,16.7195,1.06318
3.02,2.5931,1.19788,15.7994,14.918,16.6934,1.06331
3.03,2.59572,1.19837,15.7734,14.8924,16.6672,1.06346
3.04,2.59818,1.19876,15.7475,14.8666,16.6411,1.0636
3.05,2.60067,1.19923,15.7215,14.8409,16.6149,1.06372
3.06,2.60317,1.19971,15.6954,14.8151,16.5887,1.06387
3.07,2.60572,1.20014,15.6694,14.7893,16.5624,1.06401
3.08,2.60825,1.20063,15.6433,14.7635,16.5361,1.06412
3.09,2.6107,1.2011,15.6172,14.7377,16.5099,1.06427
3.1,2.61327,1.20151,15.5911,14.7118,16.4836,1.06441
3.11,2.6157,1.20195,15.565,14.6859,16.4572,1.06451
3.12,2.61808,1.20243,15.5388,14.66,16.4308,1.06466
3.13,2.62053,1.20284,15.5126,14.634,16.4045,1.0648
3.14,2.62286,1.20328,15.4864,14.6081,16.3781,1.0649
3.15,2.62532,1.20373,15.4602,14.5821,16.3516,1.06505
3.16,2.62774,1.20413,15.4339,14.556,16.3252,1.06519
3.17,2.63017,1.20455,15.4076,14.53,16.2987,1.06528
3.18,2.63251,1.20501,15.3813,14.5039,16.2722,1.06543
3.19,2.63475,1.20542,15.355,14.4777,16.2457,1.06557
3.2,2.63705,1.20582,15.3286,14.4516,16.2192,1.06567
3.21,2.63927,1.20629,15.3022,14.4255,16.1926,1.06581
3.22,2.64159,1.20671,15.2758,14.3993,16.166,1.06596
3.23,2.64386,1.2071,15.2494,14.3731,16.1394,1.06607
3.24,2.64604,1.20755,15.2229,14.3469,16.1128,1.0662
3.25,2.64829,1.20798,15.1965,14.3206,16.0861,1.06635
3.26,2.65064,1.20839,15.17,14.2943,16.0594,1.06647
3.27,2.65295,1.20879,15.1435,14.268,16.0327,1.06658
3.28,2.65519,1.20925,15.1169,14.2417,16.006,1.06673
3.29,2.65736,1.20969,15.0904,14.2153,15.9792,1.06687
3.3,2.65949,1.21006,15.0638,14.189,15.9525,1.06696
3.31,2.66163,1.21052,15.0372,14.1626,15.9257,1.06711
3.32,2.6637,1.21094,15.0105,14.1362,15.8989,1.06726
3.33,2.66582,1.21135,14.9839,14.1098,15.8721,1.06737
3.34,2.66787,1.21176,14.9572,14.0833,15.8452,1.06749
3.35,2.6699,1.21221,14.9305,14.0568,15.8183,1.06764
3.36,2.67196,1.21265,14.9038,14.0304,15.7914,1.06777
3.37,2.67393,1.21303,14.8771,14.0039,15.7646,1.06786
3.38,2.67587,1.21349,14.8504,13.9773,15.7376,1.06802
3.39,2.67784,1.21396,14.8236,13.9508,15.7106,1.06816
3.4,2.67982,1.21436,14.7968,13.9243,15.6837,1.06826
3.41,2.68181,1.21477,14.77,13.8977,15.6567,1.06839
3.42,2.68371,1.21522,14.7432,13.871,15.6296,1.06854
3.43,2.6855,1.21565,14.7163,13.8444,15.6026,1.06866
3.44,2.68746,1.216,14.6895,13.8178,15.5756,1.06874
3.45,2.6895,1.21646,14.6626,13.7911,15.5485,1.0689
3.46,2.6914,1.21691,14.6357,13.7644,15.5214,1.06904
3.47,2.69311,1.2173,14.6088,13.7378,15.4943,1.06913
3.48,2.69507,1.21765,14.5818,13.711,15.4672,1.06924
3.49,2.69686,1.21809,14.5549,13.6842,15.44,1.06939
3.5,2.69881,1.21851,14.5279,13.6575,15.4129,1.06951
3.51,2.7006,1.21882,14.5009,13.6307,15.3858,1.06958
3.52,2.7025,1.21922,14.4739,13.6038,15.3586,1.06972
3.53,2.70424,1.21963,14.4468,13.577,15.3314,1.06986
3.54,2.70624,1.22002,14.4198,13.5502,15.3042,1.06996
3.55,2.70801,1.2203,14.3927,13.5233,15.277,1.07002
3.56,2.70975,1.22069,14.3656,13.4964,15.2497,1.07017
3.57,2.7116,1.22111,14.3385,13.4695,15.2225,1.07029
3.58,2.71327,1.22143,14.3114,13.4426,15.1952,1.07037
3.59,2.71511,1.22175,14.2843,13.4156,15.1679,1.07045
3.6,2.71689,1.22213,14.2571,13.3886,15.1406,1.07059
3.61,2.71856,1.22253,14.2299,13.3617,15.1133,1.07071
3.62,2.7203,1.2228,14.2027,13.3347,15.086,1.07078
3.63,2.72223,1.22308,14.1755,13.3076,15.0587,1.07086
3.64,2.72403,1.22347,14.1483,13.2806,15.0313,1.071
3.65,2.72568,1.22384,14.121,13.2536,15.004,1.07111
3.66,2.72739,1.2241,14.0938,13.2264,14.9766,1.07117
3.67,2.7293,1.22439,14.0665,13.1993,14.9492,1.07126
3.68,2.73108,1.2248,14.0392,13.1722,14.9217,1.07139
3.69,2.73288,1.22515,14.0119,13.1451,14.8943,1.0715
3.7,2.73453,1.22542,13.9845,13.1179,14.8668,1.07156
3.71,2.73636,1.2257,13.9572,13.0907,14.8393,1.07164
3.72,2.73819,1.22611,13.9298,13.0635,14.8118,1.07178
3.73,2.73967,1.22648,13.9024,13.0363,14.7842,1.07188
3.74,2.74126,1.22673,13.875,13.0091,14.7567,1.07194
3.75,2.74293,1.22701,13.8476,12.9818,14.7291,1.07202
3.76,2.74451,1.22738,13.8202,12.9545,14.7016,1.07215
3.77,2.74616,1.22773,13.7927,12.9273,14.674,1.07225
3.78,2.74778,1.22798,13.7652,12.8999,14.6464,1.07231
3.79,2.74938,1.22824,13.7378,12.8726,14.6188,1.07237
3.8,2.75105,1.22863,13.7103,12.8453,14.5911,1.07251
3.81,2.75261,1.22898,13.6827,12.818,14.5635,1.07262
