time,velocity,ratio,centerX,Xmax,Xmin,Ymax
0,0,1,11,10,12,1
0.01,0.0198941,0.999982,10.9999,9.99988,11.9999,1
0.02,0.0396944,1,10.9996,9.99961,11.9996,1
0.03,0.0593569,1.00005,10.9991,9.99915,11.9991,1.00001
0.04,0.0788767,1.00008,10.9984,9.99848,11.9984,1.00002
0.05,0.0982694,1.00009,10.9975,9.99759,11.9975,1.00003
0.06,0.117527,1.00013,10.9965,9.99654,11.9964,1.00004
0.07,0.136671,1.00016,10.9952,9.9953,11.9951,1.00004
0.08,0.155722,1.00018,10.9937,9.99386,11.9936,1.00004
0.09,0.174755,1.00019,10.9921,9.99223,11.9919,1.00003
0.1,0.194101,1.00022,10.9902,9.99041,11.99,1.00004
0.11,0.21364,1.0002,10.9882,9.98836,11.9881,1.00005
0.12,0.233251,1.00015,10.986,9.98608,11.986,1.00009
0.13,0.252491,1.00016,10.9835,9.98366,11.9836,1.00011
0.14,0.271185,1.00021,10.9809,9.98107,11.9809,1.00012
0.15,0.289705,1.00031,10.9781,9.97835,11.9778,1.00005
0.16,0.308174,1.00039,10.9751,9.97548,11.9748,1.00004
0.17,0.326963,1.0004,10.9719,9.9723,11.9716,1.00006
0.18,0.345853,1.00035,10.9686,9.96885,11.9684,1.00012
0.19,0.363985,1.00029,10.965,9.96512,11.9649,1.00019
0.2,0.381924,1.00038,10.9613,9.96143,11.961,1.00017
0.21,0.400107,1.00046,10.9574,9.95765,11.957,1.00016
0.22,0.41839,1.00058,10.9533,9.95382,11.9529,1.00012
0.23,0.436132,1.00065,10.949,9.9497,11.9487,1.00012
0.24,0.453766,1.00065,10.9446,9.94506,11.9441,1.00018
0.25,0.471805,1.00062,10.94,9.94027,11.9395,1.00024
0.26,0.489589,1.00052,10.9352,9.93539,11.9349,1.00027
0.27,0.50689,1.00071,10.9302,9.93067,11.9298,1.00026
0.28,0.524602,1.00088,10.925,9.92563,11.9244,1.00024
0.29,0.542032,1.00089,10.9197,9.92032,11.919,1.00022
0.3,0.559171,1.0009,10.9142,9.91478,11.9134,1.00022
0.31,0.57658,1.00098,10.9085,9.90916,11.9078,1.00032
0.32,0.593714,1.00092,10.9026,9.90332,11.9022,1.00037
0.33,0.610626,1.00092,10.8966,9.89727,11.8961,1.00036
0.34,0.627765,1.00112,10.8904,9.89113,11.8896,1.00036
0.35,0.644466,1.00116,10.8841,9.88488,11.8833,1.00035
0.36,0.661382,1.00132,10.8775,9.87854,11.8766,1.00034
0.37,0.677927,1.00128,10.8708,9.87183,11.87,1.00036
0.38,0.694724,1.00126,10.864,9.86477,11.8632,1.00046
0.39,0.711044,1.00139,10.857,9.85782,11.856,1.00048
0.4,0.727384,1.00133,10.8498,9.85054,11.8489,1.0005
0.41,0.743861,1.00147,10.8424,9.84337,11.8414,1.00047
0.42,0.760006,1.00161,10.8349,9.83615,11.8339,1.00046
0.43,0.776342,1.00168,10.8272,9.82835,11.826,1.00051
0.44,0.792262,1.00167,10.8194,9.82058,11.8182,1.0005
0.45,0.808404,1.00163,10.8114,9.81233,11.8103,1.00062
0.46,0.824214,1.00176,10.8032,9.80441,11.8021,1.00062
0.47,0.840243,1.0019,10.7949,9.79609,11.7936,1.00065
0.48,0.856018,1.00192,10.7864,9.78771,11.7851,1.00062
0.49,0.871852,1.00214,10.7778,9.77916,11.7761,1.00062
0.5,0.887545,1.00214,10.769,9.77045,11.7675,1.00068
0.51,0.903071,1.00217,10.76,9.76151,11.7586,1.0007
0.52,0.918656,1.00219,10.7509,9.75242,11.7496,1.00077
0.53,0.934059,1.00223,10.7416,9.7431,11.7402,1.00077
0.54,0.949452,1.00247,10.7322,9.7339,11.7306,1.0008
0.55,0.964788,1.00244,10.7227,9.72431,11.721,1.00079
0.56,0.979978,1.00259,10.7129,9.71475,11.7111,1.00079
0.57,0.995224,1.00264,10.7031,9.70492,11.7013,1.00085
0.58,1.0103,1.00265,10.693,9.69476,11.6913,1.00091
0.59,1.02534,1.00272,10.6829,9.6846,11.681,1.00092
0.6,1.04032,1.00275,10.6725,9.67429,11.6707,1.00097
0.61,1.05519,1.00293,10.662,9.66405,11.6601,1.00095
0.62,1.07022,1.00304,10.6514,9.65351,11.6493,1.00095
0.63,1.08489,1.00309,10.6406,9.64278,11.6386,1.00101
0.64,1.09953,1.00315,10.6297,9.63185,11.6276,1.00102
0.65,1.11409,1.00324,10.6187,9.62086,11.6166,1.00108
0.66,1.1287,1.00325,10.6074,9.60958,11.6053,1.00113
0.67,1.14315,1.0034,10.5961,9.59837,11.5939,1.00114
0.68,1.15749,1.00352,10.5846,9.58693,11.5821,1.00112
0.69,1.17188,1.00363,10.5729,9.57535,11.5704,1.00116
0.7,1.18624,1.00367,10.5611,9.56364,11.5587,1.00121
0.71,1.20012,1.00374,10.5492,9.5518,11.5468,1.00124
0.72,1.21412,1.00383,10.5371,9.53973,11.5346,1.00127
0.73,1.22829,1.00383,10.5249,9.52742,11.5224,1.00132
0.74,1.24233,1.00401,10.5126,9.51528,11.5099,1.00132
0.75,1.25624,1.00411,10.5001,9.50291,11.4974,1.00133
0.76,1.2701,1.00421,10.4875,9.49037,11.4847,1.00136
0.77,1.28388,1.00422,10.4747,9.47753,11.4719,1.00139
0.78,1.29755,1.0043,10.4618,9.46464,11.4589,1.00143
0.79,1.31125,1.00437,10.4487,9.45162,11.4459,1.00148
0.8,1.32501,1.00447,10.4356,9.43856,11.4327,1.00152
0.81,1.33861,1.00458,10.4222,9.42536,11.4193,1.00151
0.82,1.35236,1.0047,10.4088,9.41199,11.4056,1.00152
0.83,1.36584,1.0048,10.3952,9.3984,11.392,1.00156
0.84,1.37929,1.00487,10.3815,9.38479,11.3783,1.0016
0.85,1.39259,1.00494,10.3676,9.37099,11.3644,1.00164
0.86,1.40592,1.00498,10.3536,9.35697,11.3504,1.00169
0.87,1.41914,1.00513,10.3395,9.34292,11.3361,1.00171
0.88,1.43229,1.00523,10.3252,9.32873,11.3218,1.00173
0.89,1.44542,1.00534,10.3108,9.31447,11.3073,1.00175
0.9,1.45844,1.00539,10.2963,9.30002,11.2929,1.00179
0.91,1.47152,1.00552,10.2817,9.28543,11.2781,1.00185
0.92,1.48448,1.00561,10.2669,9.27065,11.2632,1.00188
0.93,1.4974,1.0057,10.252,9.25579,11.2483,1.00191
0.94,1.51022,1.00583,10.237,9.24089,11.2331,1.00193
0.95,1.52306,1.00595,10.2218,9.22587,11.2179,1.00194
0.96,1.53575,1.00602,10.2065,9.2106,11.2025,1.00197
0.97,1.54838,1.00607,10.1911,9.19519,11.1871,1.00201
0.98,1.561,1.00616,10.1755,9.17966,11.1715,1.00207
0.99,1.5735,1.00625,10.1599,9.16407,11.1558,1.0021
1,1.58607,1.00636,10.1441,9.14835,11.1399,1.00213
1.01,1.59845,1.00648,10.1281,9.13253,11.1239,1.00214
1.02,1.61073,1.00662,10.1121,9.11659,11.1077,1.00217
1.03,1.6229,1.00669,10.0959,9.10049,11.0916,1.0022
1.04,1.63525,1.00674,10.0796,9.08423,11.0753,1.00224
1.05,1.64734,1.00681,10.0632,9.06786,11.0589,1.00229
1.06,1.65934,1.00692,10.0467,9.05139,11.0422,1.00232
1.07,1.67146,1.00703,10.03,9.03482,11.0255,1.00234
1.08,1.68352,1.00713,10.0133,9.01813,11.0086,1.00235
1.09,1.69569,1.00725,9.99637,9.00136,10.9917,1.00238
1.1,1.70731,1.00733,9.97935,8.98439,10.9747,1.00242
1.11,1.719,1.00738,9.96222,8.96727,10.9575,1.00247
1.12,1.73066,1.00745,9.94497,8.95004,10.9402,1.0025
1.13,1.74233,1.00758,9.92761,8.93273,10.9228,1.00256
1.14,1.75393,1.00771,9.91013,8.91535,10.9052,1.00259
1.15,1.76553,1.00781,9.89253,8.89782,10.8875,1.00261
1.16,1.77693,1.00793,9.87482,8.88021,10.8697,1.00264
1.17,1.78818,1.00802,9.85699,8.86244,10.8519,1.00268
1.18,1.79963,1.00809,9.83906,8.84457,10.8339,1.00271
1.19,1.81095,1.00815,9.821,8.82656,10.8158,1.00272
1.2,1.82223,1.00828,9.80284,8.80848,10.7975,1.00276
1.21,1.83344,1.00843,9.78456,8.79029,10.7791,1.0028
1.22,1.84454,1.00851,9.76617,8.77194,10.7607,1.00282
1.23,1.85578,1.00858,9.74767,8.75353,10.7422,1.00285
1.24,1.86674,1.00863,9.72906,8.73497,10.7236,1.00289
1.25,1.87772,1.00873,9.71034,8.71632,10.7048,1.00293
1.26,1.88868,1.00889,9.6915,8.69759,10.6859,1.00298
1.27,1.89948,1.009,9.67256,8.67867,10.6668,1.00302
1.28,1.9105,1.0091,9.65352,8.65971,10.6477,1.00303
1.29,1.92115,1.00916,9.63436,8.64063,10.6285,1.00304
1.3,1.93177,1.00923,9.61509,8.62143,10.6093,1.00309
1.31,1.94238,1.00941,9.59572,8.60217,10.5898,1.00316
1.32,1.95307,1.0095,9.57625,8.58273,10.5702,1.00319
1.33,1.96354,1.00955,9.55666,8.56318,10.5506,1.0032
1.34,1.97408,1.00962,9.53698,8.54354,10.5309,1.00322
1.35,1.98457,1.0098,9.51718,8.52388,10.5109,1.00327
1.36,1.99503,1.00991,9.49729,8.50407,10.491,1.0033
1.37,2.00531,1.00991,9.47728,8.4841,10.471,1.00331
1.38,2.01556,1.00999,9.45718,8.46402,10.4509,1.00337
1.39,2.02572,1.01017,9.43697,8.4439,10.4305,1.00342
1.4,2.03584,1.01027,9.41667,8.4237,10.4102,1.00344
1.41,2.04589,1.01032,9.39626,8.40333,10.3897,1.00345
1.42,2.05598,1.01046,9.37575,8.38292,10.3691,1.0035
1.43,2.06599,1.01059,9.35514,8.3624,10.3484,1.00353
1.44,2.07572,1.01063,9.33443,8.34175,10.3277,1.00356
1.45,2.08553,1.01073,9.31363,8.32099,10.3069,1.00361
1.46,2.09512,1.01085,9.29272,8.30013,10.2859,1.00364
1.47,2.10488,1.01092,9.27172,8.27919,10.2648,1.00366
1.48,2.1147,1.01106,9.25063,8.25822,10.2437,1.00371
1.49,2.12428,1.01118,9.22943,8.23712,10.2224,1.00372
1.5,2.13382,1.01121,9.20814,8.21583,10.2011,1.00376
1.51,2.14331,1.01133,9.18676,8.19454,10.1797,1.00381
1.52,2.15265,1.01143,9.16528,8.17314,10.1581,1.00382
1.53,2.16228,1.01146,9.1437,8.15155,10.1365,1.00387
1.54,2.17164,1.01161,9.12203,8.13,10.1147,1.00389
1.55,2.18098,1.01171,9.10027,8.10833,10.0929,1.00391
1.56,2.19028,1.01178,9.07842,8.0865,10.071,1.00395
1.57,2.19953,1.0119,9.05647,8.0647,10.049,1.00396
1.58,2.20887,1.01194,9.03443,8.04262,10.027,1.00403
1.59,2.21806,1.01203,9.01229,8.02052,10.0048,1.00406
1.6,2.22709,1.01218,8.99007,7.99845,9.98246,1.00408
1.61,2.23612,1.01226,8.96775,7.97613,9.96004,1.00412
1.62,2.24514,1.01237,8.94535,7.95389,9.93759,1.00412
1.63,2.25419,1.01248,8.92285,7.93143,9.91506,1.0042
1.64,2.26304,1.01258,8.90026,7.90893,9.89239,1.00421
1.65,2.27187,1.01267,8.87759,7.88632,9.86974,1.00427
1.66,2.2806,1.01276,8.85483,7.86354,9.84683,1.0043
1.67,2.28932,1.01291,8.83198,7.84088,9.82395,1.00433
1.68,2.29799,1.013,8.80904,7.81794,9.8009,1.00437
1.69,2.30687,1.01313,8.78602,7.79511,9.77783,1.00438
1.7,2.31541,1.01318,8.76291,7.77194,9.75469,1.00444
1.71,2.32389,1.0133,8.73971,7.74888,9.73142,1.00445
1.72,2.33231,1.01334,8.71643,7.72558,9.70815,1.00451
1.73,2.34077,1.01344,8.69307,7.70232,9.68469,1.00451
1.74,2.34927,1.01353,8.66962,7.67893,9.66123,1.00456
1.75,2.35772,1.01363,8.64608,7.65548,9.63758,1.00456
1.76,2.36603,1.01372,8.62246,7.63193,9.61396,1.00461
1.77,2.37435,1.01379,8.59876,7.60826,9.59021,1.00463
1.78,2.38254,1.0139,8.57498,7.58455,9.56637,1.00468
1.79,2.39068,1.01398,8.55111,7.56073,9.54244,1.00471
1.8,2.39882,1.0141,8.52717,7.53686,9.5184,1.00474
1.81,2.40686,1.0142,8.50314,7.51291,9.49433,1.00477
1.82,2.41489,1.01431,8.47903,7.48887,9.47011,1.0048
1.83,2.42305,1.01443,8.45484,7.4648,9.44593,1.00485
1.84,2.43085,1.01448,8.43057,7.44052,9.42156,1.00486
1.85,2.43881,1.01463,8.40622,7.41631,9.3972,1.00493
1.86,2.44656,1.01468,8.3818,7.39188,9.3727,1.00495
1.87,2.45437,1.01485,8.35729,7.36753,9.3481,1.00499
1.88,2.4622,1.01486,8.33271,7.34294,9.32353,1.00501
1.89,2.47006,1.01503,8.30805,7.31841,9.29872,1.00504
1.9,2.47786,1.01504,8.28331,7.29368,9.27406,1.00508
1.91,2.48548,1.01516,8.25849,7.26893,9.24908,1.00509
1.92,2.49309,1.01522,8.2336,7.2441,9.22425,1.00514
1.93,2.50065,1.0153,8.20863,7.21915,9.19917,1.00516
1.94,2.50831,1.01545,8.18359,7.19426,9.17405,1.00519
1.95,2.51584,1.01544,8.15847,7.1691,9.14895,1.00521
1.96,2.52335,1.01562,8.13327,7.14406,9.1236,1.00523
1.97,2.53085,1.01565,8.108,7.11878,9.09837,1.00529
1.98,2.53817,1.01579,8.08266,7.09352,9.07291,1.00532
1.99,2.54548,1.01588,8.05724,7.06818,9.04744,1.00534
2,2.55284,1.01594,8.03175,7.04271,9.02194,1.00539
2.01,2.56004,1.01611,8.00619,7.01729,8.99624,1.00541
2.02,2.56738,1.01618,7.98055,6.99169,8.97057,1.00545
2.03,2.57457,1.01625,7.95484,6.96604,8.94486,1.00549
2.04,2.5816,1.01639,7.92906,6.94035,8.91895,1.00551
2.05,2.58868,1.01645,7.90321,6.91453,8.89308,1.00555
2.06,2.59587,1.01654,7.87729,6.88868,8.86712,1.00559
2.07,2.60308,1.01667,7.85129,6.86278,8.84099,1.0056
2.08,2.61003,1.01669,7.82523,6.83672,8.81496,1.00563
2.09,2.61702,1.01681,7.79909,6.8107,8.78877,1.00566
2.1,2.62408,1.01691,7.77289,6.78454,8.76246,1.00568
2.11,2.63094,1.01692,7.74661,6.75825,8.73622,1.00572
2.12,2.63791,1.01704,7.72027,6.73204,8.70983,1.00575
2.13,2.64487,1.01716,7.69386,6.70566,8.68328,1.00578
2.14,2.65165,1.01719,7.66737,6.67921,8.65679,1.00579
2.15,2.65837,1.0173,7.64082,6.65277,8.63024,1.00584
2.16,2.66506,1.01744,7.61421,6.62619,8.60345,1.00587
2.17,2.67168,1.01748,7.58752,6.59957,8.57676,1.00588
2.18,2.67841,1.01754,7.56077,6.57287,8.55006,1.00594
2.19,2.68501,1.01773,7.53396,6.54615,8.52305,1.00597
2.2,2.69157,1.0178,7.50708,6.51932,8.49609,1.00598
2.21,2.69808,1.01784,7.48013,6.49243,8.4692,1.00602
2.22,2.70447,1.01796,7.45312,6.46549,8.44211,1.00606
2.23,2.71084,1.01808,7.42604,6.43849,8.41493,1.00609
2.24,2.71711,1.01814,7.3989,6.41142,8.38776,1.00609
2.25,2.72346,1.01818,7.3717,6.38421,8.36058,1.00615
2.26,2.72981,1.01831,7.34443,6.35703,8.33321,1.00618
2.27,2.73605,1.01842,7.3171,6.32977,8.30577,1.00619
2.28,2.74233,1.01844,7.28971,6.30242,8.27838,1.0062
2.29,2.74849,1.01849,7.26226,6.27499,8.25095,1.00624
2.3,2.75485,1.01862,7.23474,6.24758,8.22335,1.00628
2.31,2.76097,1.01874,7.20716,6.22007,8.19567,1.00631
2.32,2.76707,1.01875,7.17952,6.19246,8.16805,1.00632
2.33,2.7733,1.01881,7.15182,6.16478,8.14033,1.00636
2.34,2.77936,1.01897,7.12406,6.13712,8.11244,1.0064
2.35,2.7853,1.01912,7.09624,6.10941,8.08451,1.00643
2.36,2.79122,1.01914,7.06836,6.08154,8.05663,1.00645
2.37,2.79747,1.01914,7.04041,6.05358,8.02869,1.00646
2.38,2.80348,1.01929,7.01241,6.02568,8.00061,1.00652
2.39,2.8094,1.01946,6.98435,5.99777,7.97245,1.00655
2.4,2.81525,1.01953,6.95622,5.96967,7.94427,1.00658
2.41,2.82107,1.01954,6.92804,5.94149,7.91612,1.0066
2.42,2.82682,1.01963,6.8998,5.91331,7.88779,1.00662
2.43,2.83283,1.01978,6.87151,5.88515,7.85943,1.00667
2.44,2.83865,1.0199,6.84315,5.8569,7.83101,1.0067
2.45,2.84445,1.01993,6.81473,5.82845,7.80256,1.00672
2.46,2.85026,1.01996,6.78626,5.79998,7.77406,1.00675
2.47,2.85603,1.02004,6.75773,5.77149,7.74545,1.00675
2.48,2.86189,1.02015,6.72914,5.74303,7.71683,1.00679
2.49,2.86755,1.02023,6.70049,5.71447,7.68817,1.00682
2.5,2.87335,1.02031,6.67179,5.68582,7.65943,1.00685
2.51,2.87883,1.02038,6.64303,5.65705,7.63059,1.00688
2.52,2.88444,1.02044,6.61422,5.62827,7.60174,1.0069
2.53,2.88984,1.02052,6.58534,5.59944,7.57278,1.00692
2.54,2.8954,1.02062,6.55642,5.57061,7.54382,1.00694
2.55,2.90095,1.02071,6.52744,5.54173,7.51483,1.00698
2.56,2.90645,1.02081,6.4984,5.51276,7.48573,1.00701
2.57,2.91189,1.0209,6.46931,5.48369,7.45655,1.00704
2.58,2.91717,1.02095,6.44016,5.45454,7.42736,1.00708
2.59,2.9225,1.02101,6.41097,5.42538,7.39812,1.0071
2.6,2.92776,1.02111,6.38172,5.3962,7.36881,1.00712
2.61,2.93297,1.0212,6.35241,5.36703,7.33948,1.00714
2.62,2.93809,1.0213,6.32306,5.33778,7.31012,1.00717
2.63,2.94337,1.02138,6.29365,5.30843,7.28067,1.0072
2.64,2.94864,1.02146,6.26419,5.27899,7.25113,1.00723
2.65,2.95383,1.02152,6.23468,5.24948,7.22155,1.00726
2.66,2.95889,1.02158,6.20512,5.21991,7.19192,1.00729
2.67,2.96403,1.02163,6.1755,5.19033,7.1623,1.00731
2.68,2.96905,1.02171,6.14584,5.16074,7.13259,1.00733
2.69,2.97413,1.02178,6.11612,5.13111,7.10285,1.00735
2.7,2.979,1.02187,6.08636,5.10146,7.07306,1.00736
2.71,2.98414,1.02194,6.05654,5.07169,7.04321,1.00738
2.72,2.98914,1.02202,6.02668,5.04188,7.01329,1.00741
2.73,2.99412,1.0221,5.99676,5.01199,6.9833,1.00744
2.74,2.99898,1.02219,5.96679,4.98207,6.95328,1.00747
2.75,3.00373,1.02225,5.93678,4.95206,6.92322,1.00751
2.76,3.00858,1.02231,5.90672,4.92202,6.89313,1.00754
2.77,3.01331,1.02239,5.87661,4.89196,6.86297,1.00757
2.78,3.01798,1.02247,5.84646,4.86188,6.83279,1.0076
2.79,3.02273,1.02257,5.81625,4.83175,6.80251,1.00762
2.8,3.02755,1.02264,5.786,4.80157,6.77223,1.00764
2.81,3.0324,1.02274,5.7557,4.77134,6.74185,1.00766
2.82,3.03695,1.02282,5.72536,4.74108,6.71147,1.00768
2.83,3.0416,1.0229,5.69497,4.71074,6.68102,1.0077
2.84,3.04624,1.02295,5.66453,4.68035,6.65056,1.00772
2.85,3.05083,1.02303,5.63404,4.64992,6.62002,1.00774
2.86,3.05534,1.02308,5.60351,4.61942,6.58948,1.00776
2.87,3.05995,1.02314,5.57294,4.58889,6.55888,1.00779
2.88,3.06474,1.02318,5.54231,4.55829,6.52824,1.00781
2.89,3.06927,1.02325,5.51164,4.52767,6.49754,1.00784
2.9,3.07357,1.0233,5.48093,4.49697,6.4668,1.00786
2.91,3.07784,1.02337,5.45017,4.46626,6.436,1.00789
2.92,3.0819,1.02342,5.41938,4.43547,6.40517,1.00791
2.93,3.08635,1.0235,5.38854,4.4047,6.37429,1.00794
2.94,3.09057,1.02357,5.35765,4.37384,6.34336,1.00797
2.95,3.0948,1.02364,5.32673,4.34297,6.31239,1.008
2.96,3.09911,1.02372,5.29576,4.31202,6.28136,1.00802
2.97,3.10351,1.02379,5.26475,4.28106,6.25032,1.00805
2.98,3.10786,1.02386,5.23369,4.25004,6.2192,1.00807
2.99,3.11195,1.02394,5.20259,4.21901,6.18806,1.0081
3,3.11563,1.02401,5.17145,4.18792,6.15688,1.00812
3.01,3.11951,1.02409,5.14028,4.15681,6.12566,1.00814
3.02,3.12361,1.02416,5.10907,4.12564,6.09441,1.00816
3.03,3.12773,1.02421,5.07781,4.09443,6.06312,1.00818
3.04,3.1318,1.02428,5.04651,4.06318,6.03178,1.0082
3.05,3.13594,1.02433,5.01517,4.03186,6.0004,1.00822
3.06,3.13985,1.0244,4.9838,4.00053,5.96897,1.00824
3.07,3.14373,1.02446,4.95238,3.96916,5.93753,1.00826
3.08,3.14769,1.02452,4.92092,3.93775,5.90604,1.00828
3.09,3.15164,1.02459,4.88943,3.9063,5.87451,1.0083
3.1,3.15551,1.02466,4.85789,3.87481,5.84293,1.00833
3.11,3.15929,1.02473,4.82632,3.84329,5.81132,1.00835
3.12,3.16336,1.0248,4.79471,3.81173,5.77967,1.00837
3.13,3.16716,1.02487,4.76305,3.78013,5.74798,1.0084
3.14,3.17074,1.02495,4.73136,3.7485,5.71625,1.00842
3.15,3.17427,1.02501,4.69964,3.71682,5.68449,1.00844
3.16,3.17798,1.02507,4.66788,3.6851,5.65271,1.00846
3.17,3.18167,1.02513,4.63608,3.65336,5.62088,1.00848
3.18,3.18546,1.02519,4.60425,3.62157,5.58902,1.0085
3.19,3.18924,1.02524,4.57237,3.58974,5.55711,1.00852
3.2,3.19291,1.02528,4.54046,3.55786,5.52517,1.00853
3.21,3.19682,1.02536,4.50852,3.52596,5.49317,1.00855
3.22,3.20041,1.02543,4.47653,3.49401,5.46113,1.00857
3.23,3.20404,1.02549,4.44451,3.46203,5.42907,1.0086
3.24,3.20758,1.02555,4.41245,3.42999,5.39698,1.00862
3.25,3.21116,1.02563,4.38036,3.39796,5.36482,1.00864
3.26,3.21455,1.02571,4.34823,3.36587,5.33263,1.00866
3.27,3.21822,1.02579,4.31607,3.33377,5.30042,1.00869
3.28,3.22175,1.02586,4.28387,3.30161,5.26817,1.00871
3.29,3.22506,1.02595,4.25163,3.26943,5.23588,1.00874
3.3,3.22825,1.02602,4.21937,3.23721,5.20358,1.00877
3.31,3.23158,1.02607,4.18707,3.20495,5.17128,1.00879
3.32,3.23486,1.02611,4.15474,3.17266,5.13892,1.0088
3.33,3.23819,1.02617,4.12237,3.14034,5.10653,1.00882
3.34,3.24157,1.0262,4.08998,3.10799,5.07413,1.00883
3.35,3.24493,1.02623,4.05754,3.0756,5.04172,1.00884
3.36,3.24827,1.02625,4.02508,3.04315,5.00924,1.00885
3.37,3.25135,1.02633,3.99258,3.01069,4.97669,1.00888
3.38,3.25446,1.0264,3.96005,2.9782,4.9441,1.0089
3.39,3.25754,1.02646,3.92749,2.94567,4.9115,1.00893
3.4,3.2606,1.02653,3.8949,2.91311,4.87884,1.00894
3.41,3.26361,1.02662,3.86228,2.88054,4.84615,1.00896
3.42,3.26671,1.0267,3.82963,2.84795,4.81345,1.00899
3.43,3.26969,1.02675,3.79695,2.8153,4.78076,1.00901
3.44,3.27291,1.02679,3.76424,2.78261,4.74802,1.00903
3.45,3.2757,1.02683,3.7315,2.74989,4.71524,1.00904
3.46,3.27846,1.02686,3.69873,2.71716,4.68249,1.00906
3.47,3.28115,1.02686,3.66593,2.68441,4.64973,1.00906
3.48,3.28401,1.02693,3.6331,2.65165,4.61688,1.00908
3.49,3.28675,1.02702,3.60025,2.61884,4.58396,1.00911
3.5,3.28937,1.0271,3.56737,2.586,4.55102,1.00913
3.51,3.29214,1.02717,3.53446,2.55312,4.51805,1.00915
3.52,3.29476,1.02725,3.50153,2.52023,4.48503,1.00918
3.53,3.2971,1.02733,3.46857,2.48732,4.45202,1.0092
3.54,3.29972,1.02737,3.43559,2.45436,4.41902,1.00922
3.55,3.30226,1.02737,3.40258,2.42136,4.38602,1.00922
3.56,3.30465,1.02739,3.36954,2.38837,4.35302,1.00923
3.57,3.30704,1.02742,3.33649,2.35537,4.31999,1.00924
3.58,3.30945,1.02748,3.3034,2.32233,4.28689,1.00927
3.59,3.31188,1.02753,3.2703,2.28924,4.25372,1.00929
3.6,3.31399,1.02763,3.23717,2.25615,4.22049,1.0093
3.61,3.31618,1.02771,3.20402,2.22306,4.18728,1.00933
3.62,3.31842,1.02775,3.17085,2.18992,4.15409,1.00934
3.63,3.32065,1.02778,3.13765,2.15673,4.12086,1.00935
3.64,3.32265,1.0278,3.10444,2.12353,4.08766,1.00936
3.65,3.32482,1.02782,3.0712,2.09035,4.05446,1.00937
3.66,3.32626,1.02786,3.03795,2.05713,4.0212,1.0094
3.67,3.32828,1.02795,3.00468,2.02391,3.98785,1.00942
3.68,3.3299,1.02805,2.97139,1.99067,3.95447,1.00944
3.69,3.33166,1.02813,2.93808,1.95742,3.9211,1.00946
3.7,3.33333,1.02816,2.90475,1.92412,3.88777,1.00947
3.71,3.33488,1.0282,2.87141,1.8908,3.8544,1.00948
3.72,3.33646,1.02821,2.83806,1.85748,3.82108,1.00949
3.73,3.33791,1.02824,2.80469,1.82416,3.78774,1.00951
3.74,3.33947,1.0283,2.7713,1.79081,3.75433,1.00954
3.75,3.34074,1.02841,2.7379,1.75746,3.72081,1.00956
3.76,3.34201,1.0285,2.70449,1.72411,3.68732,1.00958
3.77,3.34321,1.02854,2.67106,1.69073,3.65389,1.00959
3.78,3.34425,1.02856,2.63762,1.6573,3.62043,1.0096
3.79,3.34522,1.02857,2.60418,1.62386,3.58699,1.00961
3.8,3.34625,1.02859,2.57072,1.59046,3.55358,1.00963
