time,velocity,ratio,centerX,Xmax,Xmin,Ymax
0,0,1,8.5,7.5,9.5,1
0.01,0.0198584,1.00002,8.4999,7.49992,9.49988,1
0.02,0.0396652,1.00002,8.4996,7.49962,9.49959,1
0.03,0.0593547,1.00007,8.49911,7.49917,9.49906,1.00002
0.04,0.0789321,1.00009,8.49842,7.49848,9.49836,1.00003
0.05,0.0983823,1.00012,8.49753,7.49761,9.49745,1.00004
0.06,0.117692,1.00015,8.49645,7.49655,9.49635,1.00005
0.07,0.1369,1.00018,8.49518,7.49531,9.49504,1.00004
0.08,0.156053,1.00016,8.49372,7.49384,9.49357,1.00003
0.09,0.175254,1.00017,8.49206,7.49221,9.4919,1.00002
0.1,0.194996,1.00016,8.49021,7.49036,9.49007,1.00002
0.11,0.215422,1.00007,8.48816,7.48823,9.48817,1.00004
0.12,0.236228,1.00005,8.4859,7.48596,9.48603,1.00009
0.13,0.256588,1.00011,8.48344,7.48353,9.48352,1.00011
0.14,0.275573,1.00021,8.48078,7.48094,9.48069,1.00008
0.15,0.294416,1.00036,8.47793,7.47826,9.47755,1.00001
0.16,0.313259,1.00039,8.47489,7.47528,9.47454,1.00002
0.17,0.332894,1.00032,8.47166,7.47192,9.47146,1.00009
0.18,0.352816,1.00014,8.46823,7.46815,9.46826,1.0002
0.19,0.371091,1.00026,8.46462,7.46473,9.46462,1.0002
0.2,0.389383,1.00046,8.46081,7.46113,9.46038,1.00009
0.21,0.408213,1.00061,8.45683,7.45751,9.45636,1.00003
0.22,0.427579,1.00047,8.45265,7.4532,9.45242,1.00008
0.23,0.445158,1.0003,8.44829,7.44839,9.44822,1.00022
0.24,0.463132,1.00025,8.44375,7.44365,9.44359,1.00022
0.25,0.482173,1.00042,8.43902,7.43922,9.43866,1.00014
0.26,0.500269,1.00063,8.43411,7.4348,9.43369,1.00008
0.27,0.518122,1.00069,8.42902,7.42954,9.42834,1.00009
0.28,0.536558,1.00057,8.42374,7.42405,9.42327,1.00018
0.29,0.554447,1.00041,8.41829,7.41848,9.41825,1.0003
0.3,0.572102,1.00064,8.41266,7.41316,9.41244,1.00028
0.31,0.590433,1.00078,8.40684,7.40738,9.40623,1.0002
0.32,0.607855,1.00088,8.40085,7.40148,9.40002,1.00015
0.33,0.625507,1.00097,8.39469,7.39541,9.39394,1.00024
0.34,0.643366,1.00077,8.38834,7.38887,9.38797,1.00032
0.35,0.660702,1.00069,8.38182,7.38214,9.38147,1.00036
0.36,0.678617,1.00102,8.37513,7.37563,9.37427,1.00033
0.37,0.695852,1.00096,8.36826,7.36907,9.36765,1.00024
0.38,0.713663,1.00108,8.36121,7.36221,9.3605,1.00022
0.39,0.730674,1.00103,8.35399,7.35476,9.35338,1.00035
0.4,0.747972,1.001,8.3466,7.34713,9.34593,1.0004
0.41,0.764812,1.00088,8.33903,7.33943,9.33847,1.0004
0.42,0.782039,1.00126,8.3313,7.33224,9.33044,1.00035
0.43,0.799001,1.00137,8.32339,7.32441,9.32229,1.00031
0.44,0.816035,1.00127,8.31532,7.31611,9.3143,1.00036
0.45,0.832652,1.00128,8.30708,7.30798,9.30635,1.00047
0.46,0.849837,1.00128,8.29867,7.29947,9.29803,1.00056
0.47,0.866408,1.00139,8.29008,7.29111,9.28923,1.00045
0.48,0.88328,1.00161,8.28134,7.28229,9.28002,1.00047
0.49,0.899642,1.00176,8.27242,7.27376,9.27108,1.00042
0.5,0.916235,1.00155,8.26334,7.26438,9.26235,1.00053
0.51,0.932641,1.00167,8.2541,7.25518,9.25302,1.00059
0.52,0.949043,1.00156,8.24469,7.24552,9.24369,1.00064
0.53,0.965595,1.00182,8.23512,7.23635,9.23381,1.00054
0.54,0.981816,1.00182,8.22538,7.22684,9.22427,1.00053
0.55,0.998226,1.00209,8.21548,7.21707,9.21398,1.00054
0.56,1.01458,1.00183,8.20542,7.20662,9.20432,1.00068
0.57,1.03051,1.00181,8.19519,7.19629,9.19401,1.00066
0.58,1.0467,1.002,8.18481,7.18607,9.18356,1.00074
0.59,1.06284,1.00223,8.17426,7.17582,9.17264,1.00064
0.6,1.07855,1.00218,8.16356,7.16503,9.16193,1.00063
0.61,1.09452,1.00234,8.15269,7.15429,9.15107,1.00073
0.62,1.11038,1.00223,8.14167,7.14318,9.14039,1.00083
0.63,1.1262,1.00224,8.13048,7.13201,9.12917,1.00081
0.64,1.14194,1.00249,8.11914,7.12073,9.11739,1.00081
0.65,1.15775,1.00264,8.10765,7.1095,9.10581,1.00079
0.66,1.17332,1.00259,8.09599,7.09784,9.09424,1.00079
0.67,1.18879,1.00265,8.08418,7.08599,9.08245,1.00088
0.68,1.20443,1.00265,8.07221,7.07387,9.07045,1.00093
0.69,1.22,1.0026,8.06009,7.06165,9.05835,1.00095
0.7,1.23555,1.00291,8.04782,7.04994,9.04596,1.00091
0.71,1.25061,1.00294,8.03539,7.03744,9.03338,1.00091
0.72,1.26576,1.00297,8.0228,7.02494,9.02082,1.00091
0.73,1.28089,1.00296,8.01007,7.01197,9.00814,1.00104
0.74,1.29612,1.00306,7.99719,6.99922,8.99525,1.00107
0.75,1.31116,1.00308,7.98415,6.98616,8.98215,1.00107
0.76,1.32617,1.00337,7.97096,6.9732,8.96854,1.00103
0.77,1.34116,1.00336,7.95763,6.95996,8.95538,1.00106
0.78,1.35609,1.00342,7.94414,6.9466,8.94195,1.00109
0.79,1.37106,1.00338,7.9305,6.93279,8.92841,1.00118
0.8,1.38591,1.0035,7.91672,6.91893,8.91435,1.0012
0.81,1.40097,1.00359,7.90279,6.9052,8.90042,1.00119
0.82,1.41562,1.00373,7.8887,6.8913,8.8862,1.00117
0.83,1.43023,1.00379,7.87447,6.87713,8.87202,1.00123
0.84,1.44479,1.00381,7.8601,6.8626,8.85759,1.00129
0.85,1.45925,1.00381,7.84558,6.84806,8.84309,1.00132
0.86,1.47375,1.00395,7.83092,6.83361,8.82836,1.00131
0.87,1.4881,1.00409,7.81611,6.81896,8.8134,1.0013
0.88,1.50246,1.00411,7.80116,6.80401,8.79847,1.00132
0.89,1.51676,1.00416,7.78606,6.78889,8.78337,1.00138
0.9,1.53124,1.0042,7.77082,6.77365,8.76818,1.00146
0.91,1.54552,1.00429,7.75544,6.75827,8.75262,1.00145
0.92,1.55986,1.00445,7.73991,6.74279,8.73682,1.00145
0.93,1.57397,1.00462,7.72424,6.72737,8.72105,1.00144
0.94,1.58812,1.00456,7.70843,6.71151,8.7054,1.0015
0.95,1.60209,1.00462,7.69248,6.69565,8.68955,1.00156
0.96,1.61616,1.0047,7.67639,6.67949,8.67338,1.00163
0.97,1.6303,1.00481,7.66016,6.66338,8.65698,1.0016
0.98,1.64435,1.00492,7.64379,6.64715,8.64052,1.00159
0.99,1.65819,1.00509,7.62727,6.63081,8.62388,1.00161
1,1.67197,1.00502,7.61062,6.61404,8.60738,1.00167
1.01,1.68572,1.00503,7.59384,6.59716,8.5906,1.00173
1.02,1.69932,1.0051,7.57691,6.58032,8.5737,1.00178
1.03,1.71308,1.00525,7.55985,6.56345,8.55648,1.00175
1.04,1.72667,1.0054,7.54265,6.54643,8.53914,1.00174
1.05,1.74018,1.00549,7.52532,6.52911,8.52173,1.00178
1.06,1.75372,1.00549,7.50785,6.51161,8.50435,1.00184
1.07,1.76729,1.00554,7.49024,6.49393,8.4867,1.00191
1.08,1.78061,1.00575,7.4725,6.47633,8.46873,1.00193
1.09,1.79399,1.00587,7.45463,6.45855,8.45071,1.00192
1.1,1.80732,1.00594,7.43663,6.44069,8.43271,1.00193
1.11,1.82051,1.00596,7.41849,6.4226,8.41469,1.00198
1.12,1.83359,1.00598,7.40022,6.40429,8.39642,1.00203
1.13,1.84671,1.00605,7.38182,6.3859,8.37796,1.00206
1.14,1.85994,1.0062,7.36328,6.36747,8.35926,1.00207
1.15,1.87296,1.00636,7.34462,6.34902,8.34049,1.00207
1.16,1.88592,1.00642,7.32583,6.33025,8.32163,1.00208
1.17,1.89881,1.00637,7.3069,6.31118,8.30277,1.00214
1.18,1.91162,1.00644,7.28785,6.2922,8.28377,1.00219
1.19,1.92443,1.00656,7.26867,6.2731,8.26449,1.00223
1.2,1.93727,1.00674,7.24936,6.25402,8.24504,1.00222
1.21,1.94983,1.00684,7.22993,6.23464,8.2255,1.00224
1.22,1.96245,1.00685,7.21037,6.21507,8.20598,1.00227
1.23,1.97508,1.00693,7.19068,6.19539,8.18631,1.00235
1.24,1.98771,1.00706,7.17087,6.17566,8.16639,1.00239
1.25,2.00021,1.0071,7.15093,6.15572,8.14636,1.00239
1.26,2.0127,1.0072,7.13086,6.13575,8.12619,1.00238
1.27,2.02512,1.00738,7.11067,6.11576,8.10591,1.00242
1.28,2.03741,1.0074,7.09036,6.09548,8.08568,1.00246
1.29,2.04964,1.00735,7.06993,6.07494,8.06531,1.0025
1.3,2.06186,1.00745,7.04937,6.05434,8.0446,1.00255
1.31,2.07407,1.00765,7.02869,6.03397,8.02379,1.00252
1.32,2.08628,1.00772,7.00789,6.01326,8.00292,1.00251
1.33,2.09868,1.0078,6.98697,5.99224,7.98194,1.00261
1.34,2.11052,1.00785,6.96592,5.97124,7.96092,1.00266
1.35,2.12244,1.00794,6.94476,5.95019,7.93972,1.00267
1.36,2.13441,1.00806,6.92347,5.92893,7.91836,1.00273
1.37,2.14634,1.0082,6.90207,5.90769,7.89683,1.00272
1.38,2.1582,1.00831,6.88055,5.8863,7.87525,1.00274
1.39,2.16998,1.00839,6.85891,5.86471,7.85363,1.0028
1.4,2.18155,1.00841,6.83715,5.84293,7.83189,1.00285
1.41,2.1933,1.00851,6.81528,5.821,7.80985,1.00289
1.42,2.20484,1.00857,6.79329,5.79909,7.78778,1.00287
1.43,2.21664,1.00875,6.77118,5.77726,7.76562,1.00287
1.44,2.22827,1.00877,6.74896,5.75496,7.74338,1.00292
1.45,2.23969,1.00874,6.72662,5.73264,7.72115,1.00295
1.46,2.25112,1.00893,6.70416,5.71024,7.69855,1.00303
1.47,2.26241,1.00893,6.6816,5.6877,7.67597,1.00302
1.48,2.27393,1.00919,6.65891,5.66526,7.6531,1.00305
1.49,2.28521,1.00927,6.63612,5.64246,7.63014,1.00306
1.5,2.29649,1.00933,6.61321,5.61965,7.60735,1.00312
1.51,2.30766,1.00939,6.59019,5.59662,7.58431,1.00318
1.52,2.31876,1.00945,6.56706,5.57349,7.56114,1.00322
1.53,2.32985,1.00961,6.54382,5.5504,7.53775,1.00323
1.54,2.34096,1.00968,6.52046,5.52713,7.51434,1.00322
1.55,2.35191,1.00981,6.497,5.5038,7.49084,1.00327
1.56,2.36281,1.00984,6.47343,5.48023,7.46731,1.00332
1.57,2.37379,1.00993,6.44974,5.45652,7.44351,1.00336
1.58,2.38483,1.00995,6.42595,5.43272,7.41971,1.00337
1.59,2.3956,1.01016,6.40205,5.40904,7.39563,1.00338
1.6,2.40644,1.01017,6.37804,5.38505,7.37163,1.00339
1.61,2.41706,1.01029,6.35392,5.36105,7.34747,1.00344
1.62,2.42772,1.01033,6.3297,5.33676,7.32324,1.0035
1.63,2.43839,1.01039,6.30537,5.31251,7.29892,1.00352
1.64,2.44904,1.01057,6.28093,5.28815,7.27426,1.00355
1.65,2.45942,1.01068,6.25639,5.26375,7.24965,1.00355
1.66,2.46988,1.01081,6.23175,5.23915,7.22489,1.0036
1.67,2.48017,1.0108,6.207,5.21444,7.20029,1.00365
1.68,2.49049,1.01092,6.18214,5.18959,7.17529,1.00369
1.69,2.50076,1.01102,6.15719,5.16475,7.15033,1.00373
1.7,2.51103,1.01108,6.13213,5.13971,7.12513,1.00371
1.71,2.52134,1.01127,6.10697,5.11477,7.09989,1.00375
1.72,2.5315,1.01124,6.08171,5.08949,7.07473,1.00378
1.73,2.5416,1.01136,6.05634,5.06416,7.04924,1.00381
1.74,2.55181,1.01138,6.03087,5.03865,7.02379,1.00387
1.75,2.5618,1.01148,6.00531,5.01314,6.9981,1.00387
1.76,2.57186,1.01166,5.97964,4.98768,6.97229,1.00387
1.77,2.58187,1.01168,5.95387,4.96192,6.94658,1.00392
1.78,2.59167,1.01178,5.928,4.9361,6.92064,1.00396
1.79,2.60136,1.01187,5.90204,4.91024,6.89469,1.00401
1.8,2.61142,1.01193,5.87598,4.88411,6.86855,1.00405
1.81,2.62129,1.01215,5.84981,4.85819,6.8422,1.00405
1.82,2.6309,1.0122,5.82355,4.83196,6.8159,1.00407
1.83,2.6407,1.01228,5.7972,4.80559,6.78948,1.00413
1.84,2.65047,1.01237,5.77074,4.77928,6.76307,1.00417
1.85,2.66002,1.01242,5.74419,4.75272,6.73646,1.00419
1.86,2.66991,1.01252,5.71754,4.72606,6.7097,1.00424
1.87,2.67972,1.01263,5.69079,4.69954,6.68296,1.00424
1.88,2.68918,1.01274,5.66395,4.67281,6.65602,1.00424
1.89,2.6987,1.01279,5.63701,4.64579,6.62904,1.00431
1.9,2.70822,1.01285,5.60997,4.61878,6.60203,1.00437
1.91,2.71756,1.01297,5.58285,4.59176,6.57479,1.00438
1.92,2.72697,1.01307,5.55562,4.56461,6.54744,1.00437
1.93,2.73636,1.01316,5.52831,4.53729,6.52005,1.00442
1.94,2.74575,1.01325,5.5009,4.51003,6.49268,1.00446
1.95,2.7549,1.01335,5.47339,4.48264,6.46515,1.00449
1.96,2.76387,1.01338,5.4458,4.455,6.4375,1.00451
1.97,2.77288,1.01351,5.41812,4.42735,6.40972,1.00458
1.98,2.78204,1.01364,5.39034,4.39973,6.38188,1.00459
1.99,2.79108,1.01379,5.36248,4.37202,6.35388,1.0046
2,2.79992,1.01381,5.33453,4.34404,6.32593,1.00463
2.01,2.8088,1.01382,5.30648,4.31591,6.29791,1.00469
2.02,2.81789,1.01395,5.27835,4.28791,6.26973,1.00473
2.03,2.82682,1.01409,5.25013,4.25981,6.24137,1.00474
2.04,2.83542,1.01419,5.22182,4.23161,6.213,1.00475
2.05,2.8444,1.01423,5.19342,4.20327,6.18464,1.00478
2.06,2.85332,1.01428,5.16493,4.17477,6.1561,1.00481
2.07,2.86208,1.0144,5.13636,4.14623,6.12743,1.00487
2.08,2.87091,1.0145,5.10769,4.11761,6.09867,1.0049
2.09,2.87958,1.01463,5.07894,4.089,6.06985,1.00492
2.1,2.8883,1.0147,5.0501,4.06024,6.041,1.00493
2.11,2.8969,1.01472,5.02118,4.03133,6.0121,1.00496
2.12,2.90533,1.01479,4.99217,4.00232,5.98303,1.005
2.13,2.91368,1.01493,4.96307,3.97332,5.95384,1.00504
2.14,2.92202,1.01508,4.93389,3.94425,5.92454,1.00507
2.15,2.93005,1.01521,4.90463,3.9151,5.89518,1.0051
2.16,2.93829,1.01528,4.87529,3.88584,5.86585,1.00513
2.17,2.94653,1.01528,4.84587,3.8564,5.83648,1.00517
2.18,2.9548,1.01532,4.81636,3.82685,5.80693,1.0052
2.19,2.96303,1.01542,4.78678,3.79732,5.77724,1.00523
2.2,2.97144,1.01558,4.7571,3.76779,5.74742,1.00524
2.21,2.97953,1.01571,4.72735,3.73819,5.71759,1.00525
2.22,2.98773,1.01582,4.69752,3.70845,5.68773,1.0053
2.23,2.99587,1.01587,4.6676,3.67855,5.65783,1.00534
2.24,3.00401,1.01591,4.6376,3.64852,5.62781,1.00538
2.25,3.01188,1.01598,4.60752,3.61848,5.59766,1.0054
2.26,3.01991,1.01606,4.57736,3.58836,5.56743,1.00542
2.27,3.02792,1.01614,4.54712,3.5582,5.53715,1.00545
2.28,3.03591,1.01623,4.51681,3.52795,5.50683,1.00549
2.29,3.04363,1.01633,4.48641,3.49763,5.47638,1.00553
2.3,3.05139,1.01643,4.45594,3.46722,5.44583,1.00556
2.31,3.05923,1.01656,4.42538,3.43679,5.41518,1.00558
2.32,3.06693,1.01667,4.39475,3.40625,5.38448,1.0056
2.33,3.07467,1.01676,4.36405,3.3756,5.35371,1.00564
2.34,3.08225,1.01683,4.33326,3.34484,5.3229,1.00568
2.35,3.09003,1.01691,4.3024,3.31402,5.29199,1.00571
2.36,3.09772,1.017,4.27147,3.28317,5.261,1.00573
2.37,3.10561,1.01711,4.24045,3.25225,5.2299,1.00575
2.38,3.11312,1.0172,4.20936,3.22123,5.19877,1.00578
2.39,3.12064,1.01727,4.17819,3.19009,5.16756,1.00581
2.4,3.12808,1.01735,4.14694,3.15888,5.13626,1.00585
2.41,3.13554,1.01745,4.11563,3.12759,5.10484,1.00588
2.42,3.14307,1.01754,4.08423,3.09625,5.07337,1.0059
2.43,3.15028,1.01763,4.05277,3.06485,5.04185,1.00592
2.44,3.15774,1.01772,4.02123,3.03341,5.01029,1.00596
2.45,3.16483,1.01779,3.98962,3.00183,4.97865,1.006
2.46,3.17181,1.01788,3.95793,2.9702,4.94692,1.00603
2.47,3.1789,1.01798,3.92618,2.93852,4.9151,1.00606
2.48,3.18605,1.0181,3.89436,2.90679,4.88319,1.00608
2.49,3.19308,1.01817,3.86246,2.87494,4.85124,1.00611
2.5,3.1999,1.01824,3.8305,2.84301,4.81925,1.00614
2.51,3.20698,1.01827,3.79847,2.81099,4.78724,1.00617
2.52,3.21403,1.01832,3.76636,2.77893,4.75511,1.0062
2.53,3.22065,1.01839,3.73419,2.7468,4.72289,1.00621
2.54,3.22739,1.01846,3.70195,2.71464,4.69063,1.00623
2.55,3.23414,1.01853,3.66964,2.6824,4.65832,1.00626
2.56,3.24059,1.01861,3.63727,2.65008,4.6259,1.00629
2.57,3.24722,1.0187,3.60483,2.61767,4.59337,1.00632
2.58,3.25354,1.0188,3.57233,2.58521,4.56075,1.00633
2.59,3.25992,1.01891,3.53976,2.55275,4.5281,1.00635
2.6,3.26635,1.01905,3.50713,2.52023,4.49539,1.00639
2.61,3.27259,1.01916,3.47444,2.4876,4.46265,1.00644
2.62,3.27898,1.01925,3.44168,2.4549,4.42985,1.00648
2.63,3.28527,1.01935,3.40886,2.42217,4.39698,1.00651
2.64,3.29156,1.01942,3.37598,2.38935,4.36408,1.00653
2.65,3.29773,1.01947,3.34303,2.35643,4.33109,1.00655
2.66,3.30403,1.01947,3.31002,2.32339,4.29809,1.00658
2.67,3.3102,1.01948,3.27695,2.29031,4.26504,1.0066
2.68,3.31622,1.01953,3.24382,2.2572,4.23186,1.00661
2.69,3.32194,1.01965,3.21063,2.22411,4.1986,1.00664
2.7,3.32787,1.01981,3.17738,2.19102,4.16528,1.00668
2.71,3.33394,1.01998,3.14408,2.15786,4.13184,1.00671
2.72,3.33975,1.0201,3.11071,2.12461,4.09842,1.00675
2.73,3.34553,1.02016,3.07728,2.0912,4.06496,1.00678
2.74,3.35123,1.02018,3.0438,2.05766,4.03144,1.00681
2.75,3.35689,1.02021,3.01026,2.0241,3.99786,1.00682
2.76,3.36258,1.02025,2.97666,1.99052,3.96423,1.00683
2.77,3.36805,1.02035,2.94301,1.95698,3.93057,1.00688
2.78,3.37353,1.0205,2.9093,1.92341,3.89681,1.00692
2.79,3.3789,1.02064,2.87554,1.8898,3.86298,1.00695
2.8,3.3842,1.02073,2.84173,1.85606,3.82911,1.00697
2.81,3.38948,1.0208,2.80786,1.82219,3.79514,1.00699
2.82,3.39414,1.02082,2.77394,1.78826,3.76117,1.00699
2.83,3.39884,1.02089,2.73997,1.75433,3.7272,1.00704
2.84,3.4036,1.02098,2.70596,1.72039,3.69315,1.00708
2.85,3.40828,1.02107,2.67191,1.68645,3.65909,1.0071
2.86,3.41281,1.02115,2.6378,1.6524,3.62494,1.00712
2.87,3.41729,1.0212,2.60365,1.61827,3.5907,1.00713
2.88,3.42176,1.02125,2.56946,1.5841,3.55649,1.00715
2.89,3.4261,1.02137,2.53522,1.54995,3.52221,1.0072
2.9,3.43016,1.02149,2.50094,1.5158,3.48788,1.00723
2.91,3.43402,1.02159,2.46662,1.48156,3.45351,1.00726
2.92,3.43778,1.02165,2.43226,1.4472,3.41905,1.00727
2.93,3.44118,1.0217,2.39786,1.41279,3.38459,1.00729
2.94,3.44456,1.0218,2.36344,1.37848,3.35017,1.00734
2.95,3.44782,1.02191,2.32898,1.34416,3.3157,1.00737
2.96,3.45074,1.02201,2.29448,1.30977,3.28118,1.0074
2.97,3.45336,1.02209,2.25996,1.27525,3.24654,1.00742
2.98,3.45577,1.02214,2.22542,1.24071,3.21193,1.00743
2.99,3.458,1.02226,2.19085,1.20627,3.17735,1.00747
3,3.45993,1.02236,2.15626,1.17182,3.14275,1.0075
3.01,3.46171,1.02243,2.12165,1.13727,3.10813,1.00753
3.02,3.46304,1.02249,2.08703,1.10263,3.07337,1.00753
3.03,3.46431,1.02255,2.05239,1.06803,3.03874,1.00757
3.04,3.46508,1.02269,2.01775,1.03356,3.00405,1.0076
3.05,3.46518,1.02281,1.9831,0.99909,2.96941,1.00763
3.06,3.46504,1.02291,1.94845,0.964482,2.93469,1.00767
3.07,3.46455,1.02297,1.9138,0.929823,2.89994,1.00769
3.08,3.46337,1.0231,1.87916,0.895304,2.86527,1.00773
3.09,3.46173,1.02328,1.84453,0.860904,2.83059,1.00776
3.1,3.4595,1.02338,1.80993,0.826435,2.79598,1.0078
3.11,3.4566,1.02348,1.77535,0.791903,2.76131,1.00782
3.12,3.45303,1.02356,1.7408,0.757399,2.72674,1.00787
3.13,3.44828,1.02376,1.7063,0.723148,2.6922,1.00792
3.14,3.44294,1.02394,1.67184,0.688943,2.65771,1.00795
3.15,3.43668,1.02411,1.63744,0.654726,2.62323,1.00798
3.16,3.42948,1.02426,1.60311,0.620486,2.58877,1.00801
3.17,3.42124,1.02441,1.56886,0.586399,2.55448,1.00806
3.18,3.41198,1.02465,1.53469,0.552522,2.52028,1.00813
3.19,3.40087,1.0249,1.50063,0.518787,2.48617,1.00818
3.2,3.38841,1.02515,1.46668,0.485151,2.45215,1.00824
3.21,3.37411,1.0254,1.43287,0.451613,2.4182,1.00827
3.22,3.35792,1.0257,1.39921,0.418356,2.38451,1.00834
3.23,3.33952,1.02608,1.36572,0.385361,2.35098,1.00844
3.24,3.31863,1.02657,1.33243,0.352607,2.3175,1.00855
3.25,3.29519,1.0271,1.29936,0.320199,2.28427,1.00865
3.26,3.26867,1.02774,1.26654,0.288184,2.25123,1.00875
3.27,3.23849,1.02839,1.234,0.256536,2.21858,1.00887
3.28,3.20449,1.02912,1.20179,0.225273,2.18621,1.00902
3.29,3.16584,1.03002,1.16994,0.194631,2.15417,1.00918
3.3,3.12227,1.03116,1.13849,0.16477,2.1225,1.00937
3.31,3.07205,1.0326,1.10752,0.13582,2.09125,1.00959
3.32,3.01458,1.03448,1.07708,0.108045,2.06044,1.00986
3.33,2.94821,1.03697,1.04726,0.0817486,2.03013,1.0102
3.34,2.87095,1.04033,1.01816,0.0574848,2.00039,1.01063
3.35,2.77995,1.04523,0.989901,0.0365488,1.97135,1.01115
3.36,2.67091,1.05273,0.962638,0.0207827,1.94307,1.01182
3.37,2.5381,1.06425,0.936579,0.0123631,1.91559,1.01275
3.38,2.37353,1.07814,0.911998,0.00832785,1.8891,1.01386
3.39,2.16577,1.09316,0.889265,0.00539807,1.86372,1.01572
3.4,1.90465,1.10816,0.868869,0.000921567,1.83957,1.01876
3.41,1.59364,1.12649,0.851342,0.000285345,1.81756,1.02357
3.42,1.2473,1.1456,0.83711,-0,1.79629,1.02891
3.43,0.875911,1.16398,0.826471,0.000472408,1.77597,1.03333
3.44,0.473722,1.17893,0.819696,2.47555e-07,1.75821,1.03641
3.45,0.0721318,1.18985,0.816975,2.44119e-09,1.74697,1.03932
3.46,-0.306315,1.19041,0.818136,-0,1.74766,1.04021
3.47,-0.673839,1.18119,0.823045,-0,1.75931,1.03904
3.48,-1.02447,1.16921,0.831531,-0,1.77136,1.03555
3.49,-1.35185,1.15104,0.843427,-0,1.78981,1.03007
3.5,-1.6531,1.12697,0.858482,-0,1.8163,1.02346
3.51,-1.90667,1.10514,0.876319,1.76767e-05,1.84269,1.0182
3.52,-2.09949,1.08251,0.896393,3.88854e-05,1.87222,1.01333
3.53,-2.23272,1.06167,0.91809,0.000325933,1.90075,1.00881
3.54,-2.31471,1.0432,0.940858,0.000874272,1.9287,1.00556
3.55,-2.34898,1.02663,0.964206,0.000964317,1.95567,1.00338
3.56,-2.34206,1.01191,0.987686,0.00109887,1.98145,1.00197
3.57,-2.30268,0.998288,1.01093,0.000995412,2.00674,1.00115
3.58,-2.24199,0.990104,1.03366,0.00987191,2.03065,1.00039
3.59,-2.17181,0.992957,1.05572,0.0404977,2.05346,0.999393
3.6,-2.1073,0.997084,1.0771,0.0725797,2.07516,0.998369
3.61,-2.0623,1.00091,1.09793,0.102548,2.09589,0.99758
3.62,-2.03301,1.00231,1.11839,0.129543,2.11811,0.996575
3.63,-2.012,1.00752,1.13861,0.154689,2.14004,1.00014
3.64,-1.99441,1.01604,1.15864,0.178231,2.15633,1.00491
3.65,-1.97683,1.01832,1.17849,0.199954,2.18015,1.00824
3.66,-1.9595,1.02651,1.19817,0.220143,2.18833,1.01019
3.67,-1.94762,1.03817,1.2177,0.239537,2.18833,1.01159
3.68,-1.93331,1.041,1.23711,0.257026,2.19951,1.01107
3.69,-1.9244,1.03836,1.25639,0.274227,2.22283,1.01168
3.7,-1.93062,1.03376,1.27565,0.295114,2.25204,1.01149
3.71,-1.94781,1.02114,1.29503,0.308103,2.28223,1.00793
3.72,-1.9672,1.01249,1.31461,0.329039,2.31021,1.00296
3.73,-1.98104,1.0045,1.33435,0.346362,2.33612,0.999349
3.74,-1.97669,0.992399,1.35416,0.350726,2.35938,0.996693
3.75,-1.9501,0.984164,1.37381,0.355783,2.37984,0.996001
3.76,-1.91099,0.984535,1.39312,0.37234,2.39747,0.996906
3.77,-1.86556,0.989324,1.41201,0.398397,2.41344,0.996766
