time,velocity,ratio,centerX,Xmax,Xmin,Ymax
0,0,1,7.25,6.25,8.25,1
0.01,0.0198605,1.00005,7.2499,6.24994,8.24986,1.00001
0.02,0.0399249,1.00012,7.2496,6.24968,8.24953,1.00004
0.03,0.0602673,1.00015,7.2491,6.24921,8.24901,1.00005
0.04,0.0795902,1.0001,7.2484,6.24846,8.24833,1.00004
0.05,0.0977503,1.00005,7.24751,6.24754,8.24746,1.00001
0.06,0.115495,1.00002,7.24645,6.24645,8.24643,1
0.07,0.133698,1.00007,7.2452,6.24526,8.24514,1
0.08,0.152202,1.0001,7.24378,6.24386,8.24368,1.00001
0.09,0.171375,1.00005,7.24216,6.24224,8.24208,0.999972
0.1,0.195962,0.999932,7.24033,6.24031,8.24042,0.99999
0.11,0.233939,1.00006,7.23819,6.23832,8.23834,1.00007
0.12,0.2784,1.00041,7.23563,6.23603,8.23554,1.00016
0.13,0.311296,1.00063,7.23266,6.2331,8.2322,1.00018
0.14,0.330783,1.00019,7.22944,6.22965,8.22932,1.00002
0.15,0.349404,0.999663,7.22605,6.22587,8.22624,0.999845
0.16,0.37939,0.999542,7.22242,6.22215,8.22291,0.999921
0.17,0.422548,1.0003,7.21841,6.21871,8.21846,1.00017
0.18,0.438635,1.00112,7.2141,6.21489,8.21304,1.00019
0.19,0.457172,1.00038,7.20963,6.20963,8.20937,1.00025
0.2,0.488987,0.999817,7.20491,6.20515,8.20527,0.999877
0.21,0.517891,0.999417,7.19985,6.1993,8.2003,0.999918
0.22,0.536828,1.00008,7.19458,6.19471,8.19426,0.999857
0.23,0.565864,1.00034,7.18908,6.18935,8.1893,1.00031
0.24,0.589604,1.00098,7.1833,6.18404,8.18235,1.00014
0.25,0.610524,1.00015,7.1773,6.17719,8.17728,1.0002
0.26,0.643068,0.999882,7.17104,6.17122,8.17118,0.999864
0.27,0.664146,0.99977,7.1645,6.16434,8.16462,0.999912
0.28,0.688356,1.0001,7.15775,6.15762,8.15759,1.00009
0.29,0.711128,1.00087,7.15073,6.1514,8.15007,1.00021
0.3,0.732588,1.00069,7.14352,6.14415,8.14311,1.00018
0.31,0.754825,1.00005,7.13606,6.13604,8.13607,1.00007
0.32,0.773005,0.999705,7.12843,6.1283,8.12861,0.999859
0.33,0.80009,0.999894,7.12056,6.12055,8.12083,1.00003
0.34,0.820004,1.00061,7.11246,6.11308,8.11185,0.999997
0.35,0.843312,1.00057,7.10412,6.1041,8.10374,1.00039
0.36,0.865529,1.0007,7.0956,6.09657,8.09515,0.999995
0.37,0.884868,0.999749,7.08681,6.08629,8.08709,1.00015
0.38,0.912649,1.00022,7.07785,6.0783,8.07735,0.999746
0.39,0.924218,0.999864,7.06867,6.06826,8.06909,1.00028
0.4,0.943602,1.00099,7.0593,6.06022,8.05839,1.00007
0.41,0.958504,1.0005,7.04982,6.04985,8.04969,1.00042
0.42,0.973327,1.00088,7.04014,6.04082,8.03871,0.999824
0.43,0.996328,0.999433,7.03031,6.02982,8.03139,1.00022
0.44,1.01131,1.00012,7.02027,6.02046,8.01969,0.99974
0.45,1.02764,1.0001,7.01005,6.00938,8.00988,1.00035
0.46,1.05033,1.00125,6.99968,6.00146,7.99902,1.00003
0.47,1.06068,1.0004,6.98914,5.98889,7.98887,1.00039
0.48,1.07454,1.00042,6.97846,5.97841,7.97745,0.999935
0.49,1.09566,0.999626,6.96762,5.96814,7.96905,1.00008
0.5,1.11295,1.00028,6.95659,5.9565,7.95553,0.999796
0.51,1.12966,1.00044,6.94536,5.94529,7.94491,1.00026
0.52,1.14892,1.00097,6.93396,5.93555,7.93421,1.00029
0.53,1.16868,1.00057,6.92239,5.92223,7.92159,1.00024
0.54,1.18356,1.00024,6.91064,5.91046,7.91005,1.00004
0.55,1.2038,1.00007,6.89868,5.89967,7.89942,0.999947
0.56,1.22532,1.00015,6.88653,5.88617,7.88624,1.00019
0.57,1.24238,1.00097,6.8742,5.87478,7.8732,1.00019
0.58,1.25737,1.00073,6.86171,5.86274,7.86206,1.00039
0.59,1.27128,1.0008,6.84907,5.84928,7.84785,1.00008
0.6,1.28638,0.999981,6.83627,5.83604,7.83638,1.00015
0.61,1.30308,1.00034,6.82332,5.82443,7.82348,0.999868
0.62,1.32147,1.00006,6.8102,5.80944,7.80997,1.00032
0.63,1.3351,1.00111,6.79693,5.79793,7.79596,1.00012
0.64,1.34604,1.00064,6.78354,5.78403,7.78362,1.00043
0.65,1.36084,1.00093,6.77001,5.77042,7.76864,1.00004
0.66,1.3748,0.999944,6.75633,5.75619,7.75673,1.00021
0.67,1.39031,1.00049,6.74249,5.74317,7.7421,0.999951
0.68,1.40289,1.0005,6.72852,5.72829,7.72792,1.00031
0.69,1.41907,1.00105,6.71441,5.71567,7.7139,1.00016
0.7,1.43556,1.00041,6.70014,5.70029,7.70018,1.00035
0.71,1.45395,1.00054,6.68569,5.68587,7.68501,1.00011
0.72,1.47294,1.0004,6.67106,5.67177,7.67123,1.00013
0.73,1.49061,1.00067,6.65626,5.65665,7.65555,1.00012
0.74,1.50925,1.00092,6.64126,5.64169,7.6405,1.00032
0.75,1.52564,1.00093,6.62609,5.6271,7.62597,1.00037
0.76,1.53939,1.00074,6.61077,5.61099,7.60987,1.00018
0.77,1.55566,1.00036,6.5953,5.59543,7.59496,1.00013
0.78,1.57232,1.00057,6.57967,5.58073,7.57968,1.00004
0.79,1.58685,1.00064,6.56387,5.56363,7.56305,1.00036
0.8,1.60276,1.00137,6.54793,5.549,7.5468,1.00027
0.81,1.61657,1.00089,6.53185,5.53267,7.53174,1.00043
0.82,1.63214,1.00079,6.51562,5.51577,7.51435,1.00008
0.83,1.64944,1.00008,6.49921,5.49911,7.49944,1.00024
0.84,1.66531,1.00072,6.48264,5.48373,7.4824,1.00005
0.85,1.68044,1.00075,6.46592,5.4656,7.46498,1.00044
0.86,1.69346,1.00158,6.44905,5.45055,7.448,1.0003
0.87,1.70708,1.00071,6.43204,5.43252,7.43212,1.00051
0.88,1.72197,1.00072,6.41489,5.4151,7.41386,1.0001
0.89,1.73701,1.00015,6.39759,5.39786,7.39794,1.00019
0.9,1.75182,1.00078,6.38015,5.38126,7.37993,1.00012
0.91,1.7647,1.00107,6.36256,5.36275,7.36148,1.00044
0.92,1.77849,1.00155,6.34485,5.3464,7.34407,1.00038
0.93,1.79071,1.001,6.32702,5.32786,7.32662,1.00038
0.94,1.80535,1.00053,6.30904,5.30908,7.30837,1.00018
0.95,1.81928,1.00029,6.29091,5.29142,7.29105,1.00011
0.96,1.83348,1.00061,6.27265,5.27312,7.27239,1.00024
0.97,1.84641,1.00146,6.25424,5.25492,7.25275,1.00037
0.98,1.86079,1.00146,6.23571,5.23692,7.23508,1.00053
0.99,1.87463,1.00117,6.21704,5.2178,7.21602,1.00028
1,1.88826,1.00041,6.19823,5.19819,7.19791,1.00027
1.01,1.90199,1.00049,6.17927,5.17984,7.17898,1.00006
1.02,1.91517,1.00065,6.16018,5.16029,7.15976,1.00038
1.03,1.92966,1.00174,6.14096,5.14225,7.1394,1.00031
1.04,1.9423,1.00127,6.12161,5.1226,7.1212,1.00057
1.05,1.95604,1.001,6.10211,5.10265,7.10123,1.00028
1.06,1.97127,1.00045,6.08247,5.08261,7.08234,1.00031
1.07,1.98647,1.001,6.06269,5.06381,7.06191,1.00005
1.08,1.9994,1.00085,6.04276,5.04304,7.04219,1.00043
1.09,2.01252,1.00142,6.0227,5.02389,7.022,1.00047
1.1,2.02652,1.00128,6.0025,5.00331,7.00184,1.00055
1.11,2.04078,1.00142,5.98217,4.98325,6.98074,1.00017
1.12,2.05263,1.00054,5.9617,4.96228,6.96178,1.00029
1.13,2.06586,1.00058,5.94111,4.94139,6.94092,1.00034
1.14,2.07565,1.00127,5.9204,4.92102,6.91923,1.00037
1.15,2.08358,1.00174,5.8996,4.90137,6.89862,1.00037
1.16,2.09485,1.00114,5.87871,4.87944,6.87814,1.00049
1.17,2.10627,1.00084,5.85771,4.8579,6.85702,1.00039
1.18,2.11677,1.00103,5.83659,4.83772,6.83599,1.00016
1.19,2.1297,1.00103,5.81536,4.81607,6.81472,1.00036
1.2,2.14101,1.00134,5.794,4.79461,6.79288,1.00047
1.21,2.15402,1.00135,5.77253,4.77361,6.77208,1.00058
1.22,2.1694,1.00152,5.75091,4.75204,6.74962,1.00031
1.23,2.18211,1.00095,5.72916,4.72959,6.72837,1.00034
1.24,2.19405,1.00093,5.70727,4.70809,6.70689,1.00032
1.25,2.20487,1.00113,5.68528,4.68579,6.68454,1.0005
1.26,2.21436,1.00185,5.66318,4.66442,6.66144,1.00036
1.27,2.22718,1.0013,5.64098,4.64203,6.64058,1.00058
1.28,2.24068,1.00115,5.61864,4.61932,6.61776,1.00037
1.29,2.25458,1.00098,5.59616,4.59655,6.59542,1.00042
1.3,2.26662,1.00144,5.57356,4.57497,6.57263,1.00026
1.31,2.27716,1.00138,5.55084,4.55157,6.54992,1.00055
1.32,2.28788,1.00154,5.52801,4.52895,6.52693,1.00053
1.33,2.29963,1.00137,5.50508,4.50615,6.5044,1.0005
1.34,2.31208,1.00138,5.48202,4.48299,6.48087,1.00032
1.35,2.32339,1.00113,5.45884,4.45969,6.45824,1.0004
1.36,2.33429,1.00121,5.43555,4.43632,6.43482,1.00046
1.37,2.34443,1.00167,5.41216,4.41334,6.41099,1.00049
1.38,2.35624,1.00174,5.38865,4.38988,6.38745,1.00053
1.39,2.36683,1.00139,5.36504,4.36621,6.36437,1.00047
1.4,2.37805,1.00105,5.34132,4.34166,6.34045,1.00044
1.41,2.38917,1.00141,5.31748,4.31892,6.31678,1.00033
1.42,2.40028,1.00143,5.29353,4.29427,6.2924,1.00049
1.43,2.41113,1.00184,5.26948,4.27092,6.26835,1.00055
1.44,2.42253,1.00153,5.24531,4.24619,6.24438,1.00062
1.45,2.43575,1.00161,5.22102,4.22235,6.21994,1.0004
1.46,2.44751,1.00114,5.1966,4.19707,6.19565,1.00043
1.47,2.46042,1.0014,5.17206,4.17344,6.17151,1.00043
1.48,2.4713,1.00146,5.14741,4.148,6.14627,1.0006
1.49,2.48354,1.00204,5.12263,4.1242,6.1212,1.00054
1.5,2.49479,1.0017,5.09774,4.09896,6.09682,1.00063
1.51,2.50645,1.00149,5.07274,4.07376,6.07171,1.00046
1.52,2.51827,1.00126,5.04762,4.04822,6.04672,1.00051
1.53,2.52808,1.00155,5.02238,4.02393,6.02163,1.0004
1.54,2.53808,1.00169,4.99705,3.99786,5.99568,1.0006
1.55,2.54857,1.00196,4.97162,3.97315,5.97049,1.00063
1.56,2.55858,1.00163,4.94609,3.94728,5.94517,1.00058
1.57,2.5709,1.00156,4.92044,3.92145,5.91931,1.00049
1.58,2.58174,1.0015,4.89468,3.89565,5.89365,1.00049
1.59,2.59148,1.00153,4.86881,3.87011,5.86813,1.00054
1.6,2.60172,1.00188,4.84284,3.84385,5.84135,1.00062
1.61,2.61118,1.00201,4.81678,3.81832,5.81558,1.00064
1.62,2.62103,1.00177,4.79062,3.79198,5.78953,1.00054
1.63,2.63211,1.00146,4.76436,3.76517,5.76342,1.00058
1.64,2.64214,1.00172,4.73799,3.73923,5.73676,1.00049
1.65,2.65033,1.00166,4.71153,3.71282,5.71065,1.00058
1.66,2.65974,1.002,4.68497,3.68617,5.68345,1.00064
1.67,2.66907,1.002,4.65833,3.65976,5.65718,1.00071
1.68,2.6778,1.00175,4.6316,3.63289,5.63043,1.00051
1.69,2.68731,1.00147,4.60477,3.60564,5.60384,1.00057
1.7,2.6957,1.00193,4.57786,3.57932,5.57654,1.00054
1.71,2.70368,1.00175,4.55086,3.55197,5.5499,1.00071
1.72,2.71229,1.00201,4.52378,3.52517,5.52231,1.00058
1.73,2.72232,1.00196,4.49661,3.49804,5.49548,1.00068
1.74,2.7323,1.0019,4.46933,3.4706,5.46803,1.00061
1.75,2.7414,1.00161,4.44197,3.44305,5.44101,1.00059
1.76,2.74912,1.00182,4.41451,3.4159,5.41333,1.00054
1.77,2.75759,1.00206,4.38698,3.38829,5.38561,1.00072
1.78,2.76671,1.00222,4.35936,3.36092,5.35795,1.00073
1.79,2.77637,1.00183,4.33165,3.33297,5.33062,1.00065
1.8,2.78596,1.00176,4.30384,3.30498,5.30263,1.00058
1.81,2.79606,1.00202,4.27592,3.27744,5.27467,1.00063
1.82,2.80605,1.002,4.24791,3.24928,5.2467,1.00071
1.83,2.81593,1.002,4.2198,3.221,5.21836,1.00068
1.84,2.82654,1.00212,4.19159,3.19322,5.19043,1.00072
1.85,2.8373,1.00211,4.16327,3.16486,5.16196,1.00065
1.86,2.84762,1.0018,4.13485,3.13588,5.13359,1.00066
1.87,2.85744,1.00198,4.10632,3.1078,5.10506,1.0006
1.88,2.86602,1.00215,4.07771,3.07926,5.07647,1.00075
1.89,2.87402,1.00229,4.04901,3.05043,5.04732,1.00073
1.9,2.88245,1.00201,4.02023,3.0217,5.01917,1.00075
1.91,2.89137,1.00203,3.99136,2.99291,4.99009,1.00061
1.92,2.90022,1.002,3.9624,2.96367,4.96107,1.00069
1.93,2.90953,1.00217,3.93335,2.93491,4.93193,1.00067
1.94,2.91869,1.00215,3.90421,2.90573,4.903,1.00078
1.95,2.92818,1.00238,3.87498,2.87652,4.87327,1.00075
1.96,2.93783,1.00221,3.84565,2.84729,4.84442,1.00077
1.97,2.94711,1.00202,3.81623,2.81765,4.81497,1.00068
1.98,2.95572,1.00199,3.78671,2.78805,4.78546,1.00069
1.99,2.96425,1.00225,3.75711,2.75877,4.75571,1.00072
2,2.97257,1.00238,3.72743,2.72911,4.72592,1.00079
2.01,2.98167,1.00236,3.69765,2.69916,4.69603,1.00079
2.02,2.991,1.00223,3.66779,2.66941,4.66644,1.00074
2.03,3.00017,1.00216,3.63784,2.63927,4.63641,1.00073
2.04,3.00848,1.00224,3.6078,2.60939,4.60636,1.00072
2.05,3.01639,1.00225,3.57767,2.5792,4.57631,1.00081
2.06,3.02446,1.00251,3.54747,2.54925,4.54587,1.00082
2.07,3.03308,1.00246,3.51718,2.5189,4.51569,1.00085
2.08,3.04165,1.00228,3.48681,2.48849,4.48542,1.00074
2.09,3.05005,1.00208,3.45636,2.45775,4.45512,1.00077
2.1,3.05778,1.00234,3.42581,2.42759,4.42441,1.00075
2.11,3.06547,1.00243,3.3952,2.39685,4.39371,1.00085
2.12,3.07317,1.00256,3.36451,2.36628,4.36282,1.00082
2.13,3.08111,1.00241,3.33374,2.33547,4.33236,1.00085
2.14,3.08948,1.00232,3.30288,2.3045,4.30136,1.00075
2.15,3.09765,1.00218,3.27195,2.27338,4.27057,1.00077
2.16,3.10503,1.00235,3.24093,2.24267,4.2395,1.00076
2.17,3.11189,1.00249,3.20985,2.2115,4.20825,1.00086
2.18,3.11911,1.00263,3.17869,2.18044,4.17689,1.00085
2.19,3.12676,1.00247,3.14746,2.14927,4.146,1.00083
2.2,3.13427,1.00232,3.11616,2.11769,4.11458,1.00077
2.21,3.14151,1.00236,3.08478,2.08635,4.08321,1.00078
2.22,3.14815,1.0025,3.05333,2.05513,4.0518,1.00083
2.23,3.15453,1.00265,3.02181,2.02359,4.02004,1.00087
2.24,3.16102,1.00265,2.99023,1.99196,3.98846,1.0009
2.25,3.16758,1.00257,2.95859,1.96048,3.95703,1.00084
2.26,3.17433,1.00238,2.92688,1.92841,3.92529,1.00082
2.27,3.18032,1.00246,2.89511,1.89677,3.89346,1.0008
2.28,3.18581,1.00256,2.86328,1.86506,3.86174,1.0009
2.29,3.19106,1.00278,2.8314,1.83326,3.82953,1.0009
2.3,3.19732,1.00268,2.79946,1.80121,3.79773,1.00093
2.31,3.20388,1.00261,2.76746,1.76937,3.76586,1.00085
2.32,3.21054,1.00247,2.73539,1.73701,3.73383,1.00088
2.33,3.21693,1.00262,2.70326,1.70507,3.70154,1.00085
2.34,3.22276,1.00268,2.67106,1.67294,3.66947,1.00094
2.35,3.22817,1.00287,2.63881,1.64085,3.63697,1.00093
2.36,3.23457,1.00276,2.60649,1.60842,3.6048,1.00094
2.37,3.24108,1.00264,2.57412,1.57601,3.57247,1.00086
2.38,3.24672,1.00259,2.54168,1.5435,3.54006,1.00087
2.39,3.2517,1.00275,2.50918,1.51118,3.50743,1.00087
2.4,3.25621,1.0028,2.47664,1.47863,3.47489,1.00093
2.41,3.26127,1.00286,2.44405,1.4461,3.44228,1.00094
2.42,3.26677,1.00276,2.41141,1.4134,3.40976,1.00093
2.43,3.27238,1.00265,2.37872,1.38056,3.37707,1.0009
2.44,3.27717,1.00268,2.34597,1.34786,3.34432,1.00091
2.45,3.28174,1.00279,2.31318,1.31516,3.3115,1.00096
2.46,3.28556,1.00292,2.28035,1.28235,3.27848,1.00098
2.47,3.28946,1.00292,2.24747,1.24955,3.24571,1.00099
2.48,3.29362,1.00287,2.21456,1.21668,3.2128,1.00093
2.49,3.29769,1.00273,2.1816,1.18347,3.17986,1.00092
2.5,3.30095,1.00283,2.14861,1.15069,3.14683,1.00089
2.51,3.30393,1.00289,2.11558,1.11769,3.11388,1.00098
2.52,3.30653,1.00301,2.08253,1.08461,3.0806,1.00099
2.53,3.30935,1.00294,2.04945,1.05152,3.0477,1.00103
2.54,3.31217,1.00289,2.01635,1.01847,3.01461,1.00096
2.55,3.31448,1.00279,1.98321,0.985082,2.98145,1.00097
2.56,3.31569,1.00294,1.95006,0.952223,2.94826,1.00096
2.57,3.31637,1.00305,1.9169,0.919116,2.91507,1.00102
2.58,3.31659,1.00315,1.88374,0.885949,2.88166,1.001
2.59,3.31702,1.00301,1.85057,0.852766,2.84878,1.00101
2.6,3.31752,1.00293,1.8174,0.819583,2.81567,1.00097
2.61,3.31711,1.00292,1.78422,0.78625,2.78241,1.00099
2.62,3.31564,1.00303,1.75106,0.753225,2.74921,1.00102
2.63,3.3127,1.00316,1.71792,0.720214,2.71604,1.00107
2.64,3.30945,1.00323,1.68481,0.687109,2.68281,1.00107
2.65,3.30592,1.00318,1.65174,0.654092,2.64981,1.00103
2.66,3.30171,1.00307,1.6187,0.620982,2.61686,1.001
2.67,3.29649,1.0031,1.5857,0.58799,2.58379,1.00099
2.68,3.2898,1.00321,1.55277,0.555171,2.5509,1.00106
2.69,3.28161,1.00335,1.51991,0.522422,2.51794,1.0011
2.7,3.27187,1.00337,1.48715,0.489606,2.48514,1.00113
2.71,3.26138,1.00332,1.45448,0.456987,2.45253,1.00108
2.72,3.24931,1.00324,1.42193,0.424369,2.42007,1.00108
2.73,3.23511,1.00335,1.38951,0.392093,2.38754,1.00107
2.74,3.21833,1.00349,1.35724,0.359945,2.35527,1.00115
2.75,3.19906,1.00371,1.32515,0.328067,2.32299,1.00116
2.76,3.17658,1.00375,1.29328,0.296274,2.29118,1.00119
2.77,3.15193,1.00375,1.26163,0.264681,2.25952,1.00116
2.78,3.12391,1.00374,1.23025,0.233323,2.22819,1.00116
2.79,3.09163,1.00393,1.19917,0.202528,2.19705,1.00118
2.8,3.05389,1.00419,1.16844,0.17205,2.16623,1.00126
2.81,3.01016,1.00452,1.13812,0.142067,2.13572,1.00133
2.82,2.95863,1.00479,1.10827,0.112743,2.10596,1.00138
2.83,2.89878,1.00511,1.07898,0.083954,2.07662,1.00142
2.84,2.82723,1.0057,1.05034,0.0562347,2.04783,1.00147
2.85,2.73749,1.0069,1.02251,0.030374,2.01988,1.00162
2.86,2.61296,1.01015,0.995724,0.00897044,1.99253,1.00185
2.87,2.41226,1.01961,0.970514,-0,1.96639,1.00247
2.88,2.02474,1.03417,0.948098,2.10416e-05,1.94145,1.00388
2.89,1.33382,1.05113,0.931089,2.24391e-05,1.91919,1.00865
2.9,0.445223,1.0666,0.922054,2.33966e-05,1.89871,1.01256
2.91,-0.445913,1.06633,0.922158,-0,1.89985,1.01293
2.92,-1.2416,1.05248,0.930579,-0,1.91632,1.00844
2.93,-1.85484,1.03572,0.946235,-0,1.9399,1.00459
2.94,-2.1716,1.02124,0.966542,-0,1.96205,1.00186
2.95,-2.30392,1.00919,0.989119,-0,1.98658,1.00242
2.96,-2.27579,1.00104,1.01207,0.00956515,2.0094,1.00095
2.97,-2.19127,0.998392,1.03436,0.0318419,2.03353,0.999234
2.98,-2.08465,0.997199,1.05571,0.0566196,2.05875,0.998262
2.99,-2.04751,1.00105,1.07638,0.0771368,2.07625,1.00061
3,-1.93637,1.00933,1.09628,0.101594,2.08895,1.00294
3.01,-1.91418,1.00886,1.11557,0.121799,2.11027,1.00304
3.02,-1.87148,1.00186,1.13461,0.137716,2.13497,1.00048
3.03,-1.76813,0.997004,1.15281,0.150164,2.15239,0.998113
3.04,-1.64047,0.992185,1.16979,0.167144,2.17686,0.997004
3.05,-1.55291,0.996625,1.18573,0.185602,2.19209,0.99986
3.06,-1.52302,1.00185,1.20107,0.204499,2.20535,1.00228
3.07,-1.50172,1.00761,1.21613,0.223143,2.21217,1.00208
3.08,-1.50403,1.00395,1.23108,0.238235,2.23321,1.00142
3.09,-1.42941,0.99779,1.24569,0.246682,2.24913,0.99901
3.1,-1.27882,0.994194,1.25921,0.261933,2.26866,0.997538
3.11,-1.20825,0.998817,1.27169,0.274837,2.27424,0.998522
3.12,-1.12998,1.00571,1.28354,0.289622,2.28103,1.00139
3.13,-1.08989,1.00793,1.29455,0.301396,2.29247,1.00344
3.14,-1.02331,1.00631,1.30482,0.314023,2.30332,1.00092
3.15,-1.00426,0.994693,1.31513,0.310774,2.32042,0.999489
3.16,-0.951854,0.993165,1.32505,0.319226,2.32777,0.997406
3.17,-0.900496,0.997969,1.33442,0.337044,2.33874,0.998813
3.18,-0.857781,1.00612,1.34321,0.348687,2.33875,1.00113
3.19,-0.789698,1.01016,1.35165,0.35421,2.33782,1.00188
3.2,-0.767148,1.00523,1.35959,0.364689,2.35782,1.00178
3.21,-0.708451,0.997192,1.36681,0.362942,2.36653,0.998981
3.22,-0.697268,0.98997,1.37382,0.362031,2.37662,0.99719
3.23,-0.524827,0.992215,1.38012,0.36924,2.38022,0.997661
3.24,-0.458784,1.00018,1.38487,0.384294,2.38743,1.00175
3.25,-0.434821,1.00721,1.38945,0.389214,2.37736,1.00124
3.26,-0.439644,1.00041,1.39361,0.3913,2.39346,1.00149
3.27,-0.467231,0.993554,1.39822,0.392611,2.40177,0.998102
3.28,-0.427464,0.99434,1.40275,0.397723,2.40388,0.997402
3.29,-0.361455,0.997994,1.40684,0.406373,2.40772,0.998666
3.3,-0.296314,1.0036,1.40973,0.417705,2.41248,1.00098
3.31,-0.337954,1.00517,1.41286,0.416585,2.41052,1.00211
3.32,-0.315594,0.999746,1.41618,0.413735,2.4144,1.00008
3.33,-0.292638,0.997571,1.41931,0.421774,2.42406,0.998711
3.34,-0.283235,0.996109,1.4222,0.419859,2.42628,0.999308
3.35,-0.224809,1.0026,1.42471,0.42405,2.41694,0.99904
3.36,-0.170185,1.00057,1.42661,0.432052,2.431,1.00004
3.37,-0.129385,1.00134,1.42807,0.428648,2.42951,1.00177
3.38,-0.119376,1.00383,1.42932,0.426763,2.42192,1.0014
3.39,-0.10714,1.00187,1.43044,0.434114,2.43056,1.00009
3.4,-0.0873213,0.995445,1.43144,0.430176,2.43516,0.997927
3.41,-0.0502957,0.99395,1.43208,0.422082,2.43307,0.999409
3.42,-0.0183114,1.00286,1.43253,0.437215,2.43286,1.00067
3.43,-0.0341676,1.00767,1.43269,0.439053,2.42815,1.00218
3.44,-0.0459456,1.00504,1.43313,0.435653,2.42689,1.00064
3.45,-0.0737031,0.997398,1.43364,0.432426,2.4362,0.999281
3.46,-0.103908,0.993334,1.43452,0.431119,2.4415,0.99849
3.47,-0.0601481,0.998494,1.43515,0.435305,2.43457,0.998128
3.48,-0.0422582,1.00191,1.43549,0.434933,2.43372,1.0013
3.49,0.0144996,1.00424,1.43561,0.439578,2.43312,1.001
