time,velocity,ratio,centerX,Xmax,Xmin,Ymax
0,0,0.99998,1.1,0.1,2.1,0.99998
0.01,0.0154781,1.00003,1.09992,0.0999872,2.09991,0.999989
0.02,0.0308988,1.00017,1.09969,0.0999464,2.09964,1.00001
0.03,0.0460121,1.00041,1.09931,0.0998825,2.09918,1.00006
0.04,0.0609519,1.00072,1.09878,0.0997515,2.09856,1.00012
0.05,0.075316,1.00112,1.0981,0.0995831,2.09776,1.0002
0.06,0.0895874,1.0016,1.09728,0.0993504,2.09677,1.00031
0.07,0.103659,1.00215,1.09631,0.0990365,2.09563,1.00045
0.08,0.117436,1.00276,1.09521,0.0986082,2.09431,1.00061
0.09,0.130539,1.00343,1.09397,0.0980623,2.09282,1.0008
0.1,0.143358,1.00417,1.09261,0.097421,2.09115,1.00102
0.11,0.156234,1.00493,1.09111,0.0966402,2.08932,1.00126
0.12,0.169149,1.00576,1.08948,0.0957483,2.08732,1.00152
0.13,0.18198,1.00662,1.08773,0.0947192,2.08515,1.0018
0.14,0.194214,1.00752,1.08585,0.0935578,2.08281,1.00211
0.15,0.206432,1.00845,1.08385,0.0922786,2.08031,1.00241
0.16,0.218283,1.0094,1.08173,0.0908808,2.07764,1.00271
0.17,0.230168,1.01036,1.07949,0.0893733,2.07478,1.00299
0.18,0.241115,1.01131,1.07713,0.0877593,2.07186,1.00327
0.19,0.252387,1.01227,1.07467,0.085976,2.06874,1.00355
0.2,0.263299,1.01323,1.07209,0.0840777,2.06549,1.00381
0.21,0.274217,1.01423,1.0694,0.0820903,2.0621,1.00409
0.22,0.284805,1.01519,1.06661,0.0799882,2.05861,1.00434
0.23,0.29529,1.01612,1.06371,0.0777625,2.05502,1.00457
0.24,0.305519,1.01696,1.0607,0.0754196,2.05146,1.00478
0.25,0.315439,1.01776,1.0576,0.0730463,2.0479,1.00496
0.26,0.325215,1.01851,1.0544,0.0705305,2.04433,1.00516
0.27,0.334613,1.01921,1.0511,0.0679298,2.04073,1.00535
0.28,0.343913,1.01991,1.04771,0.0653141,2.03707,1.00551
0.29,0.352975,1.02051,1.04422,0.06256,2.03342,1.00564
0.3,0.361567,1.02107,1.04065,0.0597508,2.02981,1.00579
0.31,0.3702,1.02165,1.03699,0.0569146,2.02616,1.00594
0.32,0.377985,1.02224,1.03325,0.054033,2.02239,1.00607
0.33,0.385716,1.02285,1.02943,0.0511643,2.01852,1.00615
0.34,0.393465,1.02335,1.02554,0.0481668,2.01475,1.00625
0.35,0.400928,1.02392,1.02157,0.0451896,2.01087,1.00635
0.36,0.408056,1.02458,1.01752,0.0423187,2.00688,1.00642
0.37,0.414723,1.02528,1.01341,0.0394711,2.00275,1.00646
0.38,0.421138,1.02607,1.00923,0.0366223,1.99859,1.00656
0.39,0.427242,1.02693,1.00499,0.0338419,1.9943,1.00663
0.4,0.432891,1.02792,1.00069,0.0311687,1.98985,1.00668
0.41,0.437933,1.02902,0.996337,0.0285975,1.98535,1.00677
0.42,0.44275,1.03024,0.991934,0.0261245,1.98082,1.0069
0.43,0.447171,1.03162,0.987485,0.0238065,1.97611,1.00702
0.44,0.450959,1.0332,0.982995,0.0216603,1.97126,1.00716
0.45,0.454309,1.03494,0.97847,0.0196932,1.96637,1.00735
0.46,0.456968,1.03685,0.973914,0.0179353,1.96143,1.00756
0.47,0.459215,1.03898,0.969334,0.0163521,1.9563,1.00779
0.48,0.460719,1.0413,0.964734,0.0149457,1.95114,1.00808
0.49,0.461692,1.04379,0.960123,0.0138136,1.94602,1.00841
0.5,0.462025,1.04647,0.955504,0.0128199,1.94073,1.00876
0.51,0.461718,1.04935,0.950886,0.0118693,1.93533,1.00919
0.52,0.460702,1.05233,0.946274,0.0111011,1.93,1.00966
0.53,0.458887,1.05537,0.941675,0.0103251,1.92464,1.01015
0.54,0.456101,1.05867,0.9371,0.00970948,1.91913,1.01072
0.55,0.452651,1.06196,0.932556,0.00906322,1.9137,1.01132
0.56,0.448295,1.06534,0.92805,0.00846434,1.90822,1.01194
0.57,0.443042,1.069,0.923593,0.00807389,1.90267,1.01266
0.58,0.436732,1.07261,0.919194,0.00757983,1.89712,1.01337
0.59,0.429567,1.0763,0.914861,0.00724125,1.8917,1.01412
0.6,0.421486,1.08013,0.910605,0.00674058,1.88615,1.015
0.61,0.412427,1.08403,0.906435,0.00637736,1.88059,1.01585
0.62,0.402505,1.08784,0.902359,0.00591022,1.87521,1.01674
0.63,0.391681,1.09182,0.898387,0.00553085,1.86978,1.01772
0.64,0.38008,1.09576,0.894527,0.00515955,1.86443,1.01865
0.65,0.367627,1.0997,0.890787,0.00483314,1.85919,1.01962
0.66,0.354295,1.1036,0.887176,0.00452431,1.85407,1.02058
0.67,0.34037,1.10744,0.883701,0.0042242,1.84908,1.02153
0.68,0.325855,1.11119,0.880369,0.00393722,1.84415,1.02241
0.69,0.310606,1.11435,0.877185,0.00299582,1.83949,1.02325
0.7,0.294601,1.11756,0.874158,0.0021421,1.83487,1.02409
0.71,0.278094,1.12096,0.871293,0.00190912,1.83044,1.02486
0.72,0.261221,1.12389,0.868596,0.00123541,1.82634,1.02561
0.73,0.244029,1.12661,0.866068,0.000619748,1.82253,1.02629
0.74,0.226285,1.12938,0.863715,0.000385173,1.81885,1.02687
0.75,0.208243,1.13188,0.861541,0.000238613,1.8156,1.02739
0.76,0.189875,1.13413,0.85955,8.85152e-05,1.8127,1.02787
0.77,0.171256,1.13595,0.857743,3.71021e-05,1.81037,1.02823
0.78,0.152463,1.13755,0.856123,-0,1.80827,1.0285
0.79,0.133552,1.13895,0.854692,0.000146663,1.80655,1.0287
0.8,0.11452,1.13975,0.85345,1.47346e-07,1.80533,1.02881
0.81,0.0953637,1.14035,0.8524,9.68989e-08,1.8045,1.02888
0.82,0.0760995,1.14076,0.851542,3.96574e-08,1.80388,1.02889
0.83,0.056477,1.14077,0.850878,1.29462e-08,1.80372,1.02882
0.84,0.036826,1.14065,0.850409,3.14645e-08,1.80367,1.02868
0.85,0.0174713,1.14022,0.850135,-0,1.80389,1.02842
0.86,-0.00207229,1.13942,0.850057,5.7113e-09,1.80463,1.02811
0.87,-0.0211767,1.13852,0.850171,6.06795e-09,1.80541,1.02774
0.88,-0.039578,1.13729,0.850473,4.42301e-09,1.80663,1.02733
0.89,-0.057415,1.13586,0.850958,7.8873e-09,1.80805,1.02685
0.9,-0.0749519,1.13408,0.851619,5.17319e-09,1.80998,1.02632
0.91,-0.0920695,1.13245,0.852453,5.06697e-09,1.81162,1.02579
0.92,-0.108665,1.13042,0.853456,4.20586e-09,1.81399,1.02529
0.93,-0.124842,1.12847,0.854622,4.60673e-09,1.81621,1.02477
0.94,-0.140488,1.12643,0.855948,-0,1.81854,1.02423
0.95,-0.155568,1.12438,0.857427,5.66951e-09,1.82085,1.02366
0.96,-0.169888,1.12225,0.859053,5.93688e-09,1.82325,1.02306
0.97,-0.183658,1.1202,0.86082,5.98416e-09,1.82554,1.02248
0.98,-0.19665,1.11805,0.862721,6.01492e-09,1.82787,1.02182
0.99,-0.20871,1.11585,0.864747,6.00654e-09,1.8304,1.02123
1,-0.220067,1.11351,0.86689,3.73163e-09,1.83326,1.02068
1.01,-0.230702,1.11105,0.869143,3.72387e-09,1.83632,1.02012
1.02,-0.240483,1.10854,0.871498,6.02531e-09,1.83945,1.01955
1.03,-0.249751,1.10591,0.873948,4.1755e-09,1.84283,1.01901
1.04,-0.25817,1.10342,0.876487,7.06024e-09,1.84611,1.01852
1.05,-0.26587,1.10095,0.879106,1.17064e-08,1.84944,1.01807
1.06,-0.272723,1.09852,0.881799,1.97271e-08,1.85277,1.01765
1.07,-0.278714,1.09604,0.884555,3.12142e-08,1.85623,1.01725
1.08,-0.283886,1.09347,0.887368,4.79427e-08,1.85983,1.01684
1.09,-0.288199,1.09096,0.890228,7.02053e-08,1.86334,1.01642
1.1,-0.291803,1.08845,0.893127,1.00313e-07,1.86679,1.01595
1.11,-0.294652,1.08578,0.896059,-0,1.87043,1.01544
1.12,-0.296741,1.0831,0.899015,-0,1.87408,1.0149
1.13,-0.298138,1.08032,0.901989,-0,1.87797,1.01441
1.14,-0.299081,1.07762,0.904975,-0,1.88173,1.0139
1.15,-0.299319,1.07499,0.907966,-0,1.88536,1.01337
1.16,-0.298958,1.07259,0.910957,0.000447187,1.88904,1.01284
1.17,-0.297936,1.0697,0.91394,-0,1.89273,1.01233
1.18,-0.296272,1.06709,0.916911,-0,1.8964,1.01182
1.19,-0.293885,1.06444,0.919861,-0,1.90014,1.0113
1.2,-0.2909,1.06175,0.922784,-0,1.90393,1.01076
1.21,-0.287358,1.05906,0.925674,-0,1.90781,1.01024
1.22,-0.283296,1.0564,0.928527,-0,1.91158,1.0097
1.23,-0.278715,1.05378,0.931336,-0,1.91531,1.00916
1.24,-0.273562,1.05115,0.934097,-0,1.9191,1.00863
1.25,-0.267962,1.04857,0.936804,5.03437e-05,1.92281,1.00808
1.26,-0.261924,1.04611,0.939453,4.23971e-06,1.92629,1.00756
1.27,-0.255369,1.04373,0.942039,-0,1.92982,1.00711
1.28,-0.248334,1.04143,0.944557,-0,1.93318,1.00664
1.29,-0.240794,1.0391,0.947002,-0,1.93659,1.00616
1.3,-0.232813,1.03708,0.94937,0.000203521,1.9397,1.00571
1.31,-0.224475,1.035,0.951656,0.000197946,1.94273,1.00526
1.32,-0.215714,1.03294,0.953857,0.00013353,1.94579,1.00487
1.33,-0.206623,1.03093,0.955969,-0,1.94867,1.00447
1.34,-0.197236,1.02912,0.957988,-0,1.95137,1.0041
1.35,-0.187558,1.02745,0.959912,-0,1.9539,1.00377
1.36,-0.177654,1.02593,0.961738,0.000146342,1.95639,1.00348
1.37,-0.167464,1.02459,0.963463,0.000296204,1.95853,1.0032
1.38,-0.157157,1.02339,0.965086,0.000503652,1.96059,1.00297
1.39,-0.146536,1.02225,0.966605,0.000493479,1.9624,1.00278
1.4,-0.135865,1.02117,0.968017,0.000310262,1.96404,1.00265
1.41,-0.124982,1.02017,0.969321,8.63971e-05,1.96545,1.0025
1.42,-0.114054,1.01931,0.970516,2.52108e-05,1.96684,1.00239
1.43,-0.103131,1.01856,0.971603,-0,1.96813,1.00233
1.44,-0.0920099,1.01804,0.972578,-0,1.96911,1.00231
1.45,-0.080943,1.01779,0.973443,0.000267866,1.96988,1.00233
1.46,-0.0697763,1.0176,0.974196,0.00053774,1.97058,1.00235
1.47,-0.0586182,1.01731,0.974838,0.000452918,1.97117,1.00241
1.48,-0.0475944,1.01698,0.97537,2.54959e-05,1.97151,1.00248
1.49,-0.036504,1.01711,0.97579,0.000132552,1.9716,1.0026
1.5,-0.0255263,1.01738,0.976101,0.000470284,1.97164,1.00272
1.51,-0.0146081,1.01748,0.976302,0.000387577,1.97163,1.00285
1.52,-0.00386865,1.01751,0.976394,-0,1.97147,1.00299
1.53,0.00665038,1.0181,0.97638,0.000445758,1.9711,1.00316
