time,velocity,ratio,centerX,Xmax,Xmin,Ymax
0,0,1,13.5,12.5,14.5,1
0.01,0.0198304,1,13.4999,12.4999,14.4999,1
0.02,0.0396144,0.999985,13.4996,12.4996,14.4996,1
0.03,0.0592753,0.999997,13.4991,12.4991,14.4991,0.999997
0.04,0.0788779,1.00001,13.4984,12.4984,14.4984,1
0.05,0.0983573,1.00003,13.4975,12.4976,14.4975,1.00001
0.06,0.117755,1.00006,13.4965,12.4965,14.4964,1.00001
0.07,0.137073,1.00009,13.4952,12.4953,14.4951,1.00002
0.08,0.156321,1.0001,13.4937,12.4938,14.4936,1.00002
0.09,0.175511,1.00013,13.4921,12.4922,14.492,1.00002
0.1,0.194666,1.00018,13.4902,12.4903,14.4901,1.00004
0.11,0.213943,1.00024,13.4882,12.4883,14.488,1.00007
0.12,0.233025,1.00032,13.4859,12.4862,14.4857,1.00008
0.13,0.251966,1.00035,13.4835,12.4838,14.4833,1.00011
0.14,0.270826,1.0004,13.4809,12.4812,14.4807,1.00014
0.15,0.289567,1.00048,13.4781,12.4784,14.4778,1.00018
0.16,0.308245,1.00064,13.4751,12.4755,14.4747,1.00021
0.17,0.326895,1.00079,13.4719,12.4725,14.4714,1.00025
0.18,0.345448,1.00095,13.4686,12.4692,14.4679,1.00029
0.19,0.363939,1.00103,13.465,12.4657,14.4643,1.00033
0.2,0.382278,1.00111,13.4613,12.462,14.4606,1.00036
0.21,0.400596,1.00132,13.4574,12.4582,14.4565,1.00044
0.22,0.418798,1.00158,13.4533,12.4543,14.4522,1.0005
0.23,0.436898,1.00181,13.449,12.4503,14.4477,1.00055
0.24,0.454918,1.00194,13.4446,12.4459,14.4432,1.00061
0.25,0.473103,1.00216,13.4399,12.4413,14.4385,1.00072
0.26,0.490996,1.00236,13.4351,12.4366,14.4335,1.0008
0.27,0.508756,1.00258,13.4301,12.4318,14.4283,1.00082
0.28,0.526539,1.00281,13.4249,12.4268,14.423,1.00092
0.29,0.544194,1.00307,13.4196,12.4216,14.4175,1.00102
0.3,0.561736,1.00329,13.4141,12.4162,14.4118,1.00108
0.31,0.57932,1.00352,13.4084,12.4106,14.406,1.00119
0.32,0.596756,1.00381,13.4025,12.405,14.3999,1.00126
0.33,0.614114,1.00411,13.3964,12.3992,14.3936,1.00131
0.34,0.631437,1.00431,13.3902,12.3931,14.3873,1.00142
0.35,0.64861,1.00449,13.3838,12.3867,14.3807,1.00149
0.36,0.66581,1.00481,13.3772,12.3804,14.374,1.00158
0.37,0.68288,1.00507,13.3705,12.3738,14.367,1.00167
0.38,0.699884,1.00535,13.3636,12.3671,14.3599,1.00174
0.39,0.717046,1.00557,13.3565,12.3602,14.3527,1.00184
0.4,0.733904,1.00577,13.3492,12.353,14.3453,1.00193
0.41,0.750719,1.00602,13.3418,12.3458,14.3378,1.00201
0.42,0.767266,1.00627,13.3342,12.3383,14.33,1.00207
0.43,0.783892,1.0065,13.3265,12.3307,14.3221,1.00216
0.44,0.800494,1.00679,13.3185,12.323,14.3139,1.00223
0.45,0.816984,1.00702,13.3105,12.315,14.3057,1.00234
0.46,0.833419,1.00727,13.3022,12.3069,14.2973,1.00242
0.47,0.849968,1.00759,13.2938,12.2987,14.2886,1.00249
0.48,0.866382,1.00782,13.2852,12.2903,14.2799,1.00258
0.49,0.882666,1.00805,13.2765,12.2818,14.2711,1.00265
0.5,0.898848,1.00828,13.2676,12.2729,14.262,1.00276
0.51,0.914964,1.00854,13.2585,12.2641,14.2528,1.00284
0.52,0.931036,1.00892,13.2493,12.2551,14.2433,1.00295
0.53,0.946988,1.00919,13.2399,12.2459,14.2337,1.00304
0.54,0.962773,1.00952,13.2303,12.2366,14.224,1.00315
0.55,0.978595,1.00986,13.2206,12.2271,14.214,1.00328
0.56,0.9944,1.01011,13.2108,12.2174,14.204,1.00335
0.57,1.01019,1.01048,13.2007,12.2076,14.1937,1.00349
0.58,1.02576,1.01087,13.1906,12.1977,14.1833,1.00359
0.59,1.04125,1.01117,13.1802,12.1876,14.1728,1.00369
0.6,1.05667,1.01162,13.1697,12.1773,14.162,1.00385
0.61,1.07223,1.01192,13.1591,12.1669,14.1512,1.00397
0.62,1.08747,1.01235,13.1483,12.1564,14.14,1.00407
0.63,1.10266,1.01278,13.1373,12.1457,14.1288,1.00422
0.64,1.11794,1.01313,13.1262,12.1348,14.1175,1.00435
0.65,1.13302,1.01351,13.115,12.1238,14.106,1.00447
0.66,1.14797,1.0139,13.1036,12.1126,14.0943,1.0046
0.67,1.16266,1.01433,13.092,12.1013,14.0825,1.00475
0.68,1.17758,1.01469,13.0803,12.0899,14.0706,1.00488
0.69,1.19252,1.01511,13.0685,12.0783,14.0584,1.00499
0.7,1.20721,1.01545,13.0565,12.0665,14.0462,1.00513
0.71,1.22189,1.01585,13.0443,12.0547,14.0338,1.00528
0.72,1.23647,1.01627,13.032,12.0427,14.0213,1.0054
0.73,1.25113,1.01663,13.0196,12.0305,14.0086,1.00551
0.74,1.26561,1.01698,13.007,12.0181,13.9958,1.00563
0.75,1.27997,1.01743,12.9943,12.0057,13.9828,1.00577
0.76,1.29435,1.0178,12.9814,11.9931,13.9698,1.00591
0.77,1.30862,1.01815,12.9684,11.9803,13.9565,1.00603
0.78,1.32288,1.01851,12.9553,11.9674,13.9431,1.00615
0.79,1.33705,1.01892,12.942,11.9544,13.9296,1.00626
0.8,1.35106,1.01928,12.9285,11.9412,13.9159,1.00638
0.81,1.36521,1.01966,12.9149,11.9279,13.9021,1.0065
0.82,1.37929,1.01999,12.9012,11.9144,13.8882,1.00664
0.83,1.39347,1.02035,12.8874,11.9007,13.8741,1.00677
0.84,1.40733,1.02079,12.8734,11.887,13.8598,1.00689
0.85,1.42103,1.02118,12.8592,11.8731,13.8454,1.00703
0.86,1.4348,1.02155,12.8449,11.8591,13.8309,1.00715
0.87,1.4484,1.02194,12.8305,11.8449,13.8162,1.00727
0.88,1.46195,1.02232,12.816,11.8306,13.8014,1.0074
0.89,1.47547,1.02269,12.8013,11.8161,13.7865,1.00753
0.9,1.48891,1.02308,12.7865,11.8016,13.7714,1.00766
0.91,1.50237,1.02348,12.7715,11.7869,13.7562,1.0078
0.92,1.51584,1.02392,12.7564,11.7721,13.7408,1.00793
0.93,1.52907,1.02436,12.7412,11.7571,13.7253,1.00807
0.94,1.54221,1.02481,12.7258,11.7421,13.7097,1.00821
0.95,1.55526,1.02524,12.7104,11.7269,13.694,1.00836
0.96,1.56811,1.02569,12.6947,11.7116,13.6781,1.00851
0.97,1.58099,1.02613,12.679,11.6961,13.6621,1.00866
0.98,1.59377,1.02659,12.6631,11.6806,13.6459,1.00881
0.99,1.60662,1.02705,12.6471,11.6649,13.6297,1.00897
1,1.61926,1.02754,12.631,11.649,13.6132,1.00913
1.01,1.63196,1.02799,12.6147,11.6331,13.5967,1.00929
1.02,1.64453,1.02848,12.5984,11.617,13.58,1.00945
1.03,1.65691,1.02897,12.5818,11.6008,13.5632,1.00961
1.04,1.66933,1.02945,12.5652,11.5845,13.5462,1.00977
1.05,1.68168,1.02991,12.5485,11.568,13.5292,1.00992
1.06,1.694,1.03038,12.5316,11.5514,13.512,1.01008
1.07,1.70654,1.03085,12.5146,11.5348,13.4947,1.01023
1.08,1.71871,1.03132,12.4975,11.5179,13.4773,1.01038
1.09,1.73088,1.03175,12.4802,11.501,13.4598,1.01052
1.1,1.74289,1.03215,12.4628,11.4839,13.4423,1.01066
1.11,1.75489,1.03254,12.4454,11.4667,13.4246,1.01079
1.12,1.76684,1.03297,12.4277,11.4494,13.4067,1.01095
1.13,1.77882,1.0334,12.41,11.4319,13.3888,1.01111
1.14,1.79073,1.03384,12.3922,11.4144,13.3707,1.01125
1.15,1.80256,1.03424,12.3742,11.3967,13.3525,1.01139
1.16,1.81434,1.03467,12.3561,11.3789,13.3342,1.01153
1.17,1.82604,1.03508,12.3379,11.361,13.3157,1.01165
1.18,1.83795,1.03549,12.3196,11.343,13.2972,1.01179
1.19,1.84968,1.03593,12.3012,11.3248,13.2785,1.01194
1.2,1.86125,1.03638,12.2826,11.3066,13.2596,1.01208
1.21,1.87296,1.03677,12.2639,11.2881,13.2407,1.01221
1.22,1.88437,1.03715,12.2452,11.2696,13.2217,1.01233
1.23,1.8959,1.03756,12.2263,11.251,13.2026,1.01246
1.24,1.90715,1.03802,12.2072,11.2322,13.1833,1.01263
1.25,1.91853,1.03852,12.1881,11.2134,13.1639,1.01278
1.26,1.9299,1.03895,12.1689,11.1945,13.1443,1.01292
1.27,1.94098,1.03929,12.1495,11.1753,13.1248,1.01304
1.28,1.95202,1.03973,12.1301,11.1561,13.1051,1.01321
1.29,1.96294,1.04022,12.1105,11.1368,13.0852,1.01338
1.3,1.97386,1.04075,12.0908,11.1175,13.0652,1.01353
1.31,1.98478,1.04116,12.071,11.098,13.0452,1.01366
1.32,1.99562,1.04157,12.0511,11.0783,13.0251,1.01384
1.33,2.00633,1.04208,12.0311,11.0586,13.0047,1.01401
1.34,2.01714,1.04263,12.011,11.0389,12.9842,1.01414
1.35,2.02773,1.04307,11.9908,11.019,12.9638,1.0143
1.36,2.03814,1.04352,11.9704,10.9989,12.9433,1.01449
1.37,2.04867,1.04406,11.95,10.9789,12.9225,1.01464
1.38,2.05908,1.04456,11.9295,10.9587,12.9017,1.01478
1.39,2.06935,1.04506,11.9088,10.9384,12.8808,1.01498
1.4,2.07969,1.04552,11.8881,10.9179,12.8598,1.01514
1.41,2.09002,1.04602,11.8672,10.8974,12.8386,1.01527
1.42,2.10007,1.04652,11.8463,10.8768,12.8174,1.01547
1.43,2.11017,1.04699,11.8252,10.856,12.7961,1.01564
1.44,2.12029,1.04749,11.8041,10.8352,12.7746,1.01578
1.45,2.13027,1.04799,11.7828,10.8143,12.7531,1.01595
1.46,2.14049,1.04841,11.7615,10.7931,12.7315,1.01609
1.47,2.15041,1.04888,11.74,10.772,12.7098,1.01623
1.48,2.16036,1.04938,11.7185,10.7508,12.688,1.01641
1.49,2.17019,1.04974,11.6968,10.7294,12.6661,1.01651
1.5,2.17993,1.05024,11.6751,10.708,12.6441,1.01669
1.51,2.1897,1.05073,11.6532,10.6865,12.622,1.01684
1.52,2.19949,1.05107,11.6313,10.6647,12.5999,1.01696
1.53,2.20921,1.05158,11.6092,10.643,12.5775,1.01714
1.54,2.2188,1.05194,11.5871,10.6211,12.5551,1.01725
1.55,2.22839,1.05235,11.5649,10.5992,12.5328,1.01742
1.56,2.23798,1.05287,11.5425,10.5772,12.5101,1.01756
1.57,2.24744,1.0532,11.5201,10.5549,12.4875,1.01769
1.58,2.25689,1.05369,11.4976,10.5328,12.4647,1.01785
1.59,2.26617,1.05411,11.475,10.5104,12.4418,1.01797
1.6,2.27542,1.05451,11.4523,10.488,12.419,1.01813
1.61,2.28466,1.05502,11.4295,10.4655,12.3958,1.01826
1.62,2.29411,1.05542,11.4066,10.4429,12.3728,1.01842
1.63,2.30337,1.05591,11.3836,10.4202,12.3494,1.01855
1.64,2.31234,1.05636,11.3605,10.3974,12.3262,1.01871
1.65,2.32131,1.05678,11.3373,10.3745,12.3027,1.01885
1.66,2.33026,1.0573,11.3141,10.3516,12.2792,1.01902
1.67,2.33914,1.05769,11.2907,10.3285,12.2556,1.01916
1.68,2.34801,1.05824,11.2673,10.3054,12.2318,1.01933
1.69,2.35673,1.05866,11.2438,10.2821,12.2081,1.01947
1.7,2.36531,1.05918,11.2202,10.2588,12.1842,1.01964
1.71,2.37392,1.05959,11.1965,10.2354,12.1603,1.01979
1.72,2.38251,1.06015,11.1727,10.2119,12.1361,1.01996
1.73,2.39118,1.06056,11.1488,10.1884,12.1121,1.02011
1.74,2.39971,1.06111,11.1249,10.1648,12.0878,1.02027
1.75,2.40823,1.06154,11.1008,10.141,12.0636,1.02043
1.76,2.41671,1.06207,11.0767,10.1172,12.0391,1.0206
1.77,2.42525,1.06248,11.0525,10.0933,12.0147,1.02076
1.78,2.43375,1.06302,11.0282,10.0694,11.9901,1.02091
1.79,2.44203,1.06343,11.0038,10.0452,11.9655,1.02107
1.8,2.45023,1.06396,10.9794,10.0212,11.9408,1.02122
1.81,2.45852,1.06437,10.9548,9.99678,11.916,1.02138
1.82,2.46677,1.06489,10.9302,9.97259,11.8912,1.02153
1.83,2.47502,1.06533,10.9055,9.94807,11.8661,1.02168
1.84,2.48303,1.06581,10.8807,9.92363,11.8411,1.02184
1.85,2.49108,1.06629,10.8558,9.89911,11.816,1.02197
1.86,2.49909,1.06667,10.8309,9.87433,11.7908,1.02213
1.87,2.50729,1.06721,10.8058,9.84976,11.7655,1.02227
1.88,2.51534,1.06756,10.7807,9.82473,11.7402,1.02241
1.89,2.52321,1.0681,10.7555,9.79996,11.7147,1.02257
1.9,2.53109,1.06848,10.7303,9.77493,11.6892,1.02269
1.91,2.53896,1.06888,10.7049,9.74979,11.6637,1.02285
1.92,2.54686,1.06942,10.6795,9.72478,11.638,1.023
1.93,2.55491,1.06968,10.654,9.69933,11.6123,1.02312
1.94,2.5626,1.07025,10.6284,9.67414,11.5864,1.02329
1.95,2.57026,1.07063,10.6027,9.64877,11.5605,1.02341
1.96,2.57796,1.07096,10.577,9.62316,11.5346,1.02354
1.97,2.5858,1.07157,10.5512,9.59779,11.5085,1.02371
1.98,2.59339,1.07184,10.5253,9.57204,11.4824,1.02382
1.99,2.60091,1.07231,10.4993,9.54631,11.4561,1.02397
2,2.60847,1.07288,10.4733,9.5207,11.4298,1.02413
2.01,2.61592,1.07314,10.4471,9.49473,11.4036,1.02424
2.02,2.62336,1.07368,10.421,9.46883,11.377,1.0244
2.03,2.63062,1.07421,10.3947,9.44293,11.3505,1.02457
2.04,2.63787,1.0745,10.3683,9.41674,11.324,1.02468
2.05,2.64506,1.07503,10.3419,9.39064,11.2972,1.02483
2.06,2.65224,1.07554,10.3154,9.36452,11.2706,1.02501
2.07,2.65939,1.07588,10.2889,9.33814,11.2438,1.02515
2.08,2.66634,1.07637,10.2623,9.31177,11.2168,1.02528
2.09,2.67325,1.07693,10.2356,9.28544,11.1898,1.02545
2.1,2.68016,1.07731,10.2088,9.25891,11.1629,1.02561
2.11,2.68716,1.07771,10.182,9.23232,11.1358,1.02572
2.12,2.6942,1.0783,10.1551,9.20578,11.1086,1.02589
2.13,2.70103,1.07872,10.1281,9.17908,11.0815,1.02607
2.14,2.7078,1.07908,10.101,9.15221,11.0542,1.0262
2.15,2.71484,1.07956,10.0739,9.12544,11.0268,1.0263
2.16,2.72143,1.08008,10.0467,9.09861,10.9994,1.02648
2.17,2.72813,1.08045,10.0195,9.07158,10.972,1.02666
2.18,2.73471,1.08088,9.99218,9.04451,10.9444,1.02677
2.19,2.74134,1.08137,9.9648,9.01748,10.9167,1.02689
2.2,2.74805,1.08184,9.93736,8.99035,10.8891,1.02706
2.21,2.75465,1.08223,9.90984,8.96306,10.8614,1.02723
2.22,2.76127,1.08265,9.88227,8.93573,10.8336,1.02735
2.23,2.76787,1.08309,9.85462,8.90839,10.8056,1.02744
2.24,2.77461,1.08353,9.82691,8.88094,10.7777,1.02761
2.25,2.78104,1.08392,9.79913,8.8534,10.7498,1.02777
2.26,2.7875,1.08434,9.77129,8.8258,10.7217,1.0279
2.27,2.79376,1.08477,9.74339,8.79817,10.6935,1.028
2.28,2.80027,1.08517,9.71542,8.77048,10.6654,1.02813
2.29,2.80673,1.08559,9.68738,8.74271,10.6372,1.02829
2.3,2.81303,1.08601,9.65928,8.71484,10.6088,1.02844
2.31,2.8194,1.08643,9.63112,8.68693,10.5804,1.02855
2.32,2.82569,1.08682,9.6029,8.65897,10.5519,1.02865
2.33,2.83214,1.08719,9.57461,8.63094,10.5235,1.02878
2.34,2.83832,1.08761,9.54626,8.60283,10.4949,1.02893
2.35,2.84465,1.08803,9.51785,8.57462,10.4663,1.02909
2.36,2.85082,1.08842,9.48937,8.54639,10.4376,1.02921
2.37,2.85695,1.0888,9.46083,8.51813,10.4089,1.02932
2.38,2.863,1.08919,9.43223,8.48981,10.3801,1.02943
2.39,2.86901,1.08963,9.40357,8.4614,10.3512,1.02959
2.4,2.87495,1.09009,9.37485,8.43291,10.3222,1.02975
2.41,2.88095,1.09053,9.34608,8.40437,10.2932,1.0299
2.42,2.88693,1.09094,9.31724,8.3758,10.2641,1.03003
2.43,2.89277,1.09133,9.28834,8.34717,10.235,1.03014
2.44,2.89859,1.09173,9.25938,8.31847,10.2059,1.03025
2.45,2.90446,1.09217,9.23037,8.28972,10.1766,1.03039
2.46,2.9103,1.09263,9.2013,8.26087,10.1472,1.03055
2.47,2.91627,1.09308,9.17217,8.23199,10.1179,1.03071
2.48,2.92186,1.09352,9.14298,8.20308,10.0885,1.03085
2.49,2.92751,1.09393,9.11373,8.17413,10.059,1.03098
2.5,2.93307,1.09433,9.08443,8.14511,10.0295,1.0311
2.51,2.9387,1.09477,9.05507,8.11603,9.99993,1.03122
2.52,2.94428,1.09522,9.02566,8.08684,9.97024,1.03136
2.53,2.94975,1.09562,8.99619,8.05757,9.94051,1.03149
2.54,2.95537,1.09603,8.96666,8.02825,9.91076,1.03164
2.55,2.96083,1.09644,8.93708,7.99892,9.88099,1.03179
2.56,2.96628,1.09686,8.90745,7.96957,9.85119,1.03193
2.57,2.97174,1.09726,8.87776,7.94016,9.82132,1.03206
2.58,2.97716,1.09766,8.84802,7.91069,9.79138,1.03218
2.59,2.98256,1.09807,8.81822,7.88116,9.76136,1.0323
2.6,2.98787,1.09848,8.78837,7.85157,9.73129,1.03242
2.61,2.99332,1.09887,8.75846,7.82189,9.70116,1.03254
2.62,2.99868,1.09925,8.72851,7.79214,9.67097,1.03265
2.63,3.00403,1.09963,8.69849,7.76234,9.64073,1.03277
2.64,3.00921,1.10002,8.66843,7.7325,9.61048,1.03291
2.65,3.0144,1.10038,8.63831,7.7026,9.58021,1.03304
2.66,3.01973,1.10074,8.60814,7.67268,9.54991,1.03317
2.67,3.02507,1.10111,8.57792,7.6427,9.51953,1.0333
2.68,3.03034,1.10149,8.54764,7.61267,9.48907,1.03342
2.69,3.03559,1.10187,8.51731,7.58259,9.45856,1.03354
2.7,3.04082,1.10224,8.48693,7.55244,9.42798,1.03365
2.71,3.04603,1.10261,8.4565,7.52222,9.39735,1.03376
2.72,3.05107,1.10299,8.42602,7.49197,9.36665,1.03388
2.73,3.05606,1.10337,8.39548,7.46164,9.33588,1.03399
2.74,3.06101,1.10374,8.3649,7.43127,9.30508,1.03411
2.75,3.06606,1.10411,8.33426,7.40084,9.27425,1.03422
2.76,3.07088,1.10449,8.30358,7.37036,9.24334,1.03435
2.77,3.07573,1.10486,8.27285,7.33984,9.21241,1.03447
2.78,3.08084,1.10524,8.24207,7.30925,9.1814,1.03459
2.79,3.08564,1.10561,8.21123,7.27862,9.15038,1.03471
2.8,3.09035,1.10599,8.18036,7.24796,9.1193,1.03484
2.81,3.09504,1.10639,8.14943,7.21727,9.08816,1.03497
2.82,3.09971,1.10676,8.11846,7.1865,9.05699,1.03509
2.83,3.10444,1.10713,8.08744,7.15569,9.02577,1.03521
2.84,3.10925,1.10751,8.05637,7.12484,8.9945,1.03534
2.85,3.11384,1.10791,8.02526,7.09397,8.96319,1.03546
2.86,3.11861,1.10831,7.99409,7.06305,8.93182,1.03558
2.87,3.12333,1.10869,7.96289,7.03208,8.90042,1.03571
2.88,3.1279,1.10907,7.93163,7.00105,8.86897,1.03583
2.89,3.13244,1.10946,7.90033,6.96999,8.83748,1.03595
2.9,3.13696,1.10984,7.86898,6.93887,8.80595,1.03607
2.91,3.14161,1.11019,7.83759,6.9077,8.77439,1.03619
2.92,3.14606,1.11056,7.80616,6.87648,8.74278,1.03632
2.93,3.15073,1.11093,7.77467,6.84523,8.71112,1.03644
2.94,3.15518,1.11129,7.74314,6.81392,8.67941,1.03655
2.95,3.15965,1.11164,7.71157,6.78256,8.64768,1.03667
2.96,3.16419,1.11198,7.67995,6.75115,8.61589,1.03679
2.97,3.1687,1.11234,7.64829,6.7197,8.58404,1.0369
2.98,3.17318,1.11271,7.61658,6.68821,8.55214,1.03701
2.99,3.17764,1.11306,7.58483,6.65668,8.52022,1.03711
3,3.18231,1.1134,7.55303,6.62508,8.48824,1.03722
3.01,3.18679,1.11374,7.52119,6.59345,8.45624,1.03733
3.02,3.19116,1.11409,7.4893,6.56177,8.42416,1.03743
3.03,3.19546,1.11443,7.45737,6.53006,8.39206,1.03754
3.04,3.19976,1.11478,7.42539,6.49829,8.35991,1.03765
3.05,3.20414,1.11515,7.39337,6.46651,8.32771,1.03776
3.06,3.20836,1.11552,7.36131,6.43468,8.29546,1.03786
3.07,3.21259,1.11587,7.32921,6.40281,8.26318,1.03797
3.08,3.21702,1.11623,7.29706,6.37087,8.23084,1.03808
3.09,3.22134,1.11658,7.26487,6.33889,8.19848,1.03819
3.1,3.2254,1.11693,7.23264,6.30687,8.16606,1.03829
3.11,3.22955,1.11728,7.20036,6.2748,8.13359,1.03839
3.12,3.23365,1.11762,7.16805,6.24267,8.10111,1.03852
3.13,3.23782,1.11795,7.13569,6.21048,8.06859,1.03864
3.14,3.24192,1.11829,7.1033,6.17827,8.03602,1.03875
3.15,3.24608,1.11862,7.07086,6.146,8.0034,1.03887
3.16,3.25016,1.11895,7.03838,6.11369,7.97075,1.03898
3.17,3.25412,1.1193,7.00586,6.08135,7.93804,1.0391
3.18,3.25802,1.11965,6.9733,6.04898,7.90531,1.03922
3.19,3.2621,1.12001,6.9407,6.01658,7.87252,1.03933
3.2,3.26601,1.12039,6.90806,5.98418,7.8397,1.03945
3.21,3.26986,1.12077,6.87538,5.95176,7.80684,1.03956
3.22,3.27368,1.12116,6.84266,5.91931,7.77393,1.03966
3.23,3.27756,1.12156,6.80991,5.88681,7.74094,1.03976
3.24,3.28148,1.12197,6.77711,5.85427,7.70796,1.03989
3.25,3.28511,1.12234,6.74428,5.82165,7.67494,1.04001
3.26,3.28883,1.12269,6.71141,5.78897,7.64189,1.04013
3.27,3.29264,1.12302,6.67851,5.75622,7.60881,1.04024
3.28,3.29647,1.12331,6.64556,5.72344,7.57574,1.04035
3.29,3.30015,1.1236,6.61258,5.69061,7.54261,1.04045
3.3,3.30399,1.12392,6.57956,5.65778,7.50941,1.04055
3.31,3.30786,1.12425,6.5465,5.62493,7.47618,1.04064
3.32,3.31169,1.12459,6.51341,5.59209,7.44293,1.04073
3.33,3.31529,1.12497,6.48027,5.5592,7.40963,1.04084
3.34,3.31899,1.12533,6.4471,5.52625,7.37628,1.04095
3.35,3.32256,1.12564,6.4139,5.49321,7.34292,1.04106
3.36,3.32618,1.1259,6.38065,5.46011,7.30957,1.04115
3.37,3.3299,1.12613,6.34737,5.42694,7.27618,1.04124
3.38,3.33376,1.12635,6.31406,5.39372,7.24274,1.04133
3.39,3.33747,1.12663,6.2807,5.36055,7.20926,1.04141
3.4,3.34089,1.12698,6.24731,5.3274,7.17569,1.04149
3.41,3.34433,1.12738,6.21389,5.29421,7.14205,1.04161
3.42,3.34778,1.12775,6.18043,5.26096,7.10837,1.04171
3.43,3.35137,1.12804,6.14693,5.22763,7.07474,1.04181
3.44,3.35485,1.12826,6.1134,5.19422,7.04112,1.04189
3.45,3.35846,1.12846,6.07984,5.16076,7.00748,1.04198
3.46,3.36216,1.1287,6.04624,5.12729,6.97375,1.04205
3.47,3.36557,1.12903,6.0126,5.09387,6.93995,1.04214
3.48,3.36878,1.12946,5.97893,5.06044,6.90602,1.04226
3.49,3.37214,1.12985,5.94522,5.02695,6.8721,1.04237
3.5,3.37531,1.13013,5.91149,4.99336,6.83822,1.04247
3.51,3.3787,1.13034,5.87772,4.95969,6.80439,1.04256
3.52,3.38185,1.13053,5.84392,4.926,6.77051,1.04264
3.53,3.38521,1.13079,5.81008,4.89232,6.73654,1.04271
3.54,3.38838,1.13124,5.77622,4.8587,6.70242,1.04284
3.55,3.39143,1.13167,5.74232,4.82505,6.66827,1.04296
3.56,3.39457,1.132,5.70839,4.79131,6.63416,1.04306
3.57,3.39772,1.13225,5.67443,4.75747,6.60008,1.04315
3.58,3.40052,1.13243,5.64044,4.7236,6.56605,1.04322
3.59,3.40365,1.13269,5.60642,4.68974,6.53192,1.04331
3.6,3.4068,1.13312,5.57237,4.65593,6.49762,1.04343
3.61,3.40977,1.13353,5.53829,4.62209,6.46332,1.04354
3.62,3.41275,1.13385,5.50417,4.58819,6.42907,1.04364
3.63,3.4158,1.13403,5.47003,4.55415,6.39486,1.04371
3.64,3.41875,1.13419,5.43586,4.52006,6.36064,1.04378
3.65,3.42164,1.13452,5.40166,4.48603,6.32628,1.0439
3.66,3.42453,1.13492,5.36743,4.45206,6.29186,1.04401
3.67,3.42771,1.1353,5.33317,4.41806,6.25739,1.0441
3.68,3.43097,1.13555,5.29888,4.3839,6.22296,1.04417
3.69,3.43393,1.13566,5.26455,4.34966,6.18863,1.04423
3.7,3.43678,1.1359,5.2302,4.31543,6.15418,1.04432
3.71,3.43975,1.13628,5.19582,4.28125,6.11958,1.04443
3.72,3.44284,1.13666,5.16141,4.24708,6.08495,1.04452
3.73,3.4457,1.13692,5.12697,4.21284,6.05041,1.04459
3.74,3.44878,1.13699,5.0925,4.17844,6.01597,1.04463
3.75,3.4518,1.1372,5.05799,4.14399,5.98135,1.04472
3.76,3.45489,1.13756,5.02346,4.10966,5.94664,1.04484
3.77,3.45771,1.13793,4.9889,4.07537,5.91189,1.04492
3.78,3.4606,1.13817,4.95431,4.04093,5.87716,1.04497
3.79,3.46332,1.13826,4.91969,4.00634,5.84253,1.04502
3.8,3.46581,1.13852,4.88505,3.97178,5.80775,1.04515
