time,velocity,ratio,centerX,Xmax,Xmin,Ymax
0,0,1,7.25,6.25,8.25,1
0.01,0.0198376,0.999997,7.2499,6.2499,8.2499,0.999996
0.02,0.0396919,1.00005,7.2496,6.24965,8.24956,1.00001
0.03,0.0594451,1.00009,7.24911,6.24917,8.24905,1.00003
0.04,0.079076,1.00012,7.24842,6.2485,8.24834,1.00004
0.05,0.0984816,1.00017,7.24753,6.24764,8.24742,1.00005
0.06,0.117704,1.00015,7.24645,6.24655,8.24634,1.00005
0.07,0.13677,1.00016,7.24518,6.24529,8.24505,1.00004
0.08,0.155781,1.00011,7.24372,6.2438,8.24361,1.00002
0.09,0.174932,1.00005,7.24206,6.24214,8.24198,0.999977
0.1,0.195033,1,7.24021,6.24026,8.2402,0.99997
0.11,0.217202,0.999927,7.23816,6.23814,8.23831,1.00001
0.12,0.240182,0.999999,7.23587,6.2359,8.23606,1.00008
0.13,0.261982,1.00018,7.23336,6.23353,8.23336,1.00009
0.14,0.281265,1.00049,7.23064,6.23103,8.2302,1.00007
0.15,0.300254,1.00041,7.22773,6.22803,8.22735,1.00007
0.16,0.319511,1.00038,7.22464,6.22487,8.22436,1.00012
0.17,0.340718,1.00016,7.22134,6.22132,8.22129,1.00014
0.18,0.361926,1.00016,7.21782,6.218,8.21788,1.0001
0.19,0.380544,1.00032,7.21411,6.21449,8.21388,1.00002
0.2,0.398942,1.00011,7.21021,6.21039,8.21009,0.999954
0.21,0.419094,1.00013,7.20613,6.20626,8.20609,1.00004
0.22,0.439827,0.999941,7.20183,6.20158,8.20196,1.00013
0.23,0.457742,1.00033,7.19734,6.19748,8.19694,1.00006
0.24,0.476092,1.00051,7.19268,6.19332,8.19223,0.999965
0.25,0.496753,1.00038,7.18782,6.18827,8.1878,1.00014
0.26,0.513871,1.00036,7.18276,6.18285,8.18273,1.0003
0.27,0.531655,1.00045,7.17754,6.1777,8.1771,1.00015
0.28,0.552008,1.00075,7.17212,6.17295,8.17158,1.00007
0.29,0.568318,1.0005,7.16652,6.16675,8.16604,1.00015
0.3,0.586285,1.00021,7.16075,6.16062,8.16068,1.00024
0.31,0.605727,1.00034,7.15479,6.15531,8.15491,1.00014
0.32,0.622895,1.0006,7.14864,6.14922,8.14806,1.00002
0.33,0.641509,1.00041,7.14232,6.1425,8.1418,1.00006
0.34,0.658996,1.00025,7.13582,6.13619,8.13614,1.00022
0.35,0.676789,1.00044,7.12914,6.12914,8.12872,1.00023
0.36,0.694797,1.00058,7.12228,6.12257,8.12161,1.0001
0.37,0.711532,1.00092,7.11525,6.11632,8.11481,1.00016
0.38,0.729422,1.00056,7.10805,6.10844,8.10793,1.00031
0.39,0.746136,1.00075,7.10067,6.10088,8.10005,1.00034
0.4,0.763955,1.00088,7.09312,6.09391,8.09254,1.00019
0.41,0.780883,1.0009,7.0854,6.08611,8.08459,1.00014
0.42,0.798807,1.00071,7.0775,6.0778,8.07691,1.00027
0.43,0.815595,1.00034,7.06943,6.06971,8.06957,1.00027
0.44,0.833432,1.00083,7.06118,6.06189,8.06064,1.00021
0.45,0.850199,1.0008,7.05276,6.05331,8.05196,1.00012
0.46,0.867731,1.00072,7.04417,6.04477,8.04391,1.00029
0.47,0.884537,1.0008,7.03541,6.03581,8.03494,1.00036
0.48,0.901384,1.0009,7.02648,6.02681,8.02565,1.00032
0.49,0.918064,1.00127,7.01739,6.01855,8.01656,1.00028
0.5,0.934268,1.00102,7.00813,6.00903,8.00762,1.00032
0.51,0.951426,1.00108,6.9987,5.99915,7.99792,1.00046
0.52,0.967727,1.001,6.9891,5.98982,7.98854,1.00036
0.53,0.984043,1.00118,6.97934,5.98027,7.97845,1.00026
0.54,1.00097,1.00118,6.96942,5.97016,7.96837,1.00028
0.55,1.01699,1.00075,6.95933,5.95973,7.959,1.00039
0.56,1.03356,1.00103,6.94908,5.94994,7.94866,1.00039
0.57,1.05008,1.0012,6.93866,5.93946,7.9376,1.00027
0.58,1.06565,1.00125,6.92808,5.92908,7.92731,1.00037
0.59,1.08182,1.00128,6.91734,5.91826,7.9166,1.00044
0.6,1.09804,1.00133,6.90645,5.90695,7.90535,1.00053
0.61,1.11352,1.00152,6.89539,5.89641,7.89433,1.00048
0.62,1.12902,1.00165,6.88418,5.88572,7.88316,1.00036
0.63,1.14516,1.00151,6.8728,5.87368,7.87176,1.00055
0.64,1.16105,1.00125,6.86128,5.86198,7.8606,1.00056
0.65,1.17666,1.00156,6.84959,5.8508,7.84852,1.00042
0.66,1.19242,1.00149,6.83774,5.83877,7.83657,1.00039
0.67,1.20814,1.00137,6.82574,5.82661,7.82477,1.00046
0.68,1.22389,1.00147,6.81358,5.81454,7.81275,1.00058
0.69,1.23911,1.00152,6.80127,5.80225,7.80027,1.00053
0.7,1.25416,1.00185,6.7888,5.79029,7.78749,1.00044
0.71,1.26944,1.00176,6.77618,5.77746,7.77507,1.00056
0.72,1.28483,1.00178,6.76341,5.76426,7.7621,1.0007
0.73,1.30019,1.00199,6.75049,5.75178,7.74911,1.00065
0.74,1.31563,1.00198,6.73741,5.73904,7.73626,1.00058
0.75,1.3306,1.002,6.72418,5.72559,7.72282,1.00061
0.76,1.34584,1.0017,6.7108,5.71178,7.70966,1.00063
0.77,1.36111,1.00179,6.69726,5.69855,7.69627,1.00065
0.78,1.37609,1.00201,6.68357,5.68496,7.68205,1.00055
0.79,1.391,1.00199,6.66974,5.67097,7.66822,1.00061
0.8,1.40582,1.00203,6.65576,5.65714,7.65455,1.00074
0.81,1.42054,1.00214,6.64163,5.64309,7.64029,1.00074
0.82,1.43519,1.00223,6.62735,5.62884,7.62584,1.00073
0.83,1.44982,1.00233,6.61292,5.6147,7.61144,1.00069
0.84,1.46419,1.00235,6.59836,5.59983,7.59672,1.00079
0.85,1.47897,1.0022,6.58364,5.58494,7.58224,1.00085
0.86,1.49356,1.00241,6.56878,5.5706,7.56727,1.00074
0.87,1.50809,1.00254,6.55377,5.55563,7.552,1.00072
0.88,1.5226,1.00228,6.53861,5.54013,7.53713,1.00078
0.89,1.53715,1.00233,6.52331,5.525,7.52196,1.00081
0.9,1.55158,1.00234,6.50787,5.5094,7.50626,1.00077
0.91,1.56597,1.00249,6.49228,5.49386,7.49035,1.00073
0.92,1.58025,1.00258,6.47655,5.4784,7.47485,1.0008
0.93,1.59425,1.00254,6.46067,5.46239,7.45917,1.00092
0.94,1.60819,1.00279,6.44466,5.44652,7.4428,1.00092
0.95,1.62225,1.00293,6.42851,5.43062,7.42652,1.00087
0.96,1.63626,1.00299,6.41222,5.4143,7.41023,1.00094
0.97,1.65033,1.00283,6.39578,5.39757,7.39391,1.00099
0.98,1.66441,1.00275,6.37921,5.38102,7.3775,1.00098
0.99,1.67832,1.00293,6.3625,5.36453,7.36054,1.00092
1,1.69199,1.00291,6.34565,5.34763,7.34364,1.00092
1.01,1.7056,1.00285,6.32866,5.33062,7.32699,1.00103
1.02,1.71947,1.00292,6.31154,5.3135,7.30974,1.00103
1.03,1.73315,1.00312,6.29427,5.29622,7.29197,1.00099
1.04,1.7467,1.0032,6.27687,5.27908,7.27471,1.00101
1.05,1.75999,1.00325,6.25934,5.26164,7.25728,1.00106
1.06,1.77352,1.0033,6.24167,5.24383,7.23948,1.00112
1.07,1.78704,1.00341,6.22387,5.22626,7.22166,1.0011
1.08,1.8003,1.0036,6.20593,5.20857,7.20359,1.0011
1.09,1.81364,1.00342,6.18787,5.19014,7.18565,1.00117
1.1,1.82676,1.00331,6.16967,5.1718,7.1676,1.00121
1.11,1.83984,1.00339,6.15133,5.15359,7.14913,1.00115
1.12,1.85296,1.00342,6.13287,5.13517,7.13049,1.00108
1.13,1.86597,1.00351,6.11427,5.1168,7.11204,1.00112
1.14,1.87885,1.00349,6.09555,5.09798,7.0934,1.00119
1.15,1.89166,1.00368,6.0767,5.07911,7.07421,1.00122
1.16,1.90444,1.00383,6.05772,5.06037,7.05513,1.0012
1.17,1.91703,1.00381,6.03861,5.04133,7.03624,1.00125
1.18,1.92992,1.00386,6.01938,5.02193,7.01695,1.00135
1.19,1.94291,1.0039,6.00001,5.0026,6.99751,1.00135
1.2,1.95562,1.00408,5.98052,4.98343,6.97793,1.00132
1.21,1.96832,1.00402,5.9609,4.96366,6.95821,1.00128
1.22,1.98104,1.00394,5.94116,4.9438,6.93863,1.00135
1.23,1.99364,1.004,5.92128,4.92405,6.91878,1.00136
1.24,2.00616,1.00407,5.90128,4.90411,6.89858,1.0013
1.25,2.01893,1.00406,5.88116,4.88397,6.87849,1.00131
1.26,2.03136,1.00403,5.86091,4.86376,6.85851,1.00139
1.27,2.04353,1.0042,5.84054,4.84337,6.83788,1.00145
1.28,2.05565,1.00431,5.82004,4.82289,6.81714,1.00142
1.29,2.0679,1.00446,5.79942,4.80254,6.79654,1.00144
1.3,2.08026,1.00453,5.77868,4.7818,6.77581,1.00152
1.31,2.09246,1.0045,5.75782,4.76086,6.75496,1.00153
1.32,2.10504,1.0046,5.73683,4.74005,6.73391,1.00152
1.33,2.11732,1.00462,5.71572,4.71896,6.71273,1.00149
1.34,2.12948,1.00454,5.69449,4.69759,6.69156,1.00151
1.35,2.14173,1.00448,5.67313,4.67621,6.67039,1.00156
1.36,2.15374,1.00459,5.65165,4.65476,6.6487,1.00155
1.37,2.16573,1.0047,5.63006,4.63328,6.62696,1.00153
1.38,2.17764,1.00471,5.60834,4.61167,6.60542,1.00157
1.39,2.18928,1.00488,5.58651,4.58987,6.58343,1.00165
1.4,2.2011,1.00492,5.56455,4.56785,6.56137,1.00167
1.41,2.21261,1.00506,5.54249,4.54598,6.53922,1.00166
1.42,2.22438,1.00518,5.5203,4.52395,6.517,1.00169
1.43,2.2362,1.00504,5.498,4.5014,6.49482,1.00173
1.44,2.2478,1.00515,5.47558,4.47912,6.47235,1.00175
1.45,2.25944,1.00516,5.45304,4.45665,6.4498,1.00171
1.46,2.27108,1.00517,5.43039,4.43395,6.42702,1.00169
1.47,2.28295,1.0052,5.40762,4.41122,6.40439,1.00176
1.48,2.29417,1.00513,5.38474,4.38827,6.38155,1.00175
1.49,2.30551,1.00536,5.36174,4.36536,6.35824,1.00177
1.5,2.3167,1.00537,5.33863,4.34243,6.33527,1.00177
1.51,2.32791,1.00553,5.31541,4.31927,6.31193,1.00184
1.52,2.339,1.00553,5.29207,4.29583,6.28858,1.00189
1.53,2.35023,1.00565,5.26863,4.27249,6.26501,1.00189
1.54,2.36136,1.00573,5.24507,4.24908,6.24142,1.00188
1.55,2.37249,1.00577,5.2214,4.22535,6.21771,1.00192
1.56,2.38338,1.00564,5.19762,4.20151,6.19414,1.00193
1.57,2.39457,1.00578,5.17373,4.17772,6.17007,1.00194
1.58,2.40549,1.00576,5.14973,4.15374,6.14606,1.00189
1.59,2.41642,1.00584,5.12562,4.12967,6.12191,1.00194
1.6,2.42723,1.00582,5.1014,4.10547,6.09781,1.00197
1.61,2.43796,1.00592,5.07708,4.08106,6.07329,1.00201
1.62,2.44854,1.00605,5.05265,4.05684,6.04878,1.002
1.63,2.45901,1.00612,5.02811,4.03237,6.02427,1.00204
1.64,2.46944,1.00618,5.00347,4.0077,5.99959,1.00209
1.65,2.47993,1.00617,4.97872,3.98291,5.97483,1.00211
1.66,2.49052,1.00632,4.95387,3.9583,5.9499,1.0021
1.67,2.50077,1.00633,4.92892,3.9333,5.92488,1.00209
1.68,2.51145,1.00634,4.90386,3.90825,5.89991,1.00214
1.69,2.52184,1.0063,4.87869,3.88304,5.87479,1.00215
1.7,2.53227,1.0064,4.85342,3.85781,5.84933,1.00213
1.71,2.54282,1.00645,4.82805,3.83256,5.824,1.00214
1.72,2.5532,1.00649,4.80257,3.80704,5.79849,1.00218
1.73,2.56355,1.00652,4.77698,3.78146,5.77293,1.00223
1.74,2.57374,1.00668,4.7513,3.75587,5.74705,1.00224
1.75,2.58389,1.00676,4.72551,3.73025,5.72128,1.00224
1.76,2.59398,1.00682,4.69962,3.70437,5.69538,1.00229
1.77,2.60423,1.00689,4.67363,3.67836,5.66931,1.00233
1.78,2.61426,1.00682,4.64754,3.65224,5.64328,1.00232
1.79,2.62444,1.00697,4.62135,3.62622,5.61695,1.00231
1.8,2.63461,1.00698,4.59505,3.59988,5.59064,1.00233
1.81,2.64457,1.00688,4.56866,3.5734,5.56443,1.00236
1.82,2.65436,1.007,4.54216,3.54703,5.53782,1.00236
1.83,2.66356,1.00713,4.51558,3.52051,5.51103,1.00236
1.84,2.6732,1.00712,4.48889,3.49381,5.48445,1.00241
1.85,2.68261,1.00718,4.46211,3.46709,5.45765,1.00242
1.86,2.69228,1.00731,4.43524,3.44027,5.43062,1.00246
1.87,2.70184,1.00736,4.40827,3.41332,5.40365,1.00249
1.88,2.71116,1.00742,4.38121,3.38641,5.37662,1.00248
1.89,2.72071,1.00751,4.35405,3.35926,5.34933,1.0025
1.9,2.73017,1.00745,4.32679,3.33191,5.32216,1.00254
1.91,2.73976,1.00753,4.29944,3.30462,5.29474,1.00255
1.92,2.74922,1.00757,4.272,3.27729,5.26724,1.00251
1.93,2.75854,1.00758,4.24446,3.24973,5.23973,1.00255
1.94,2.76812,1.00761,4.21683,3.2221,5.21216,1.0026
1.95,2.77751,1.0077,4.1891,3.1944,5.18427,1.0026
1.96,2.78671,1.00782,4.16128,3.16671,5.15637,1.00261
1.97,2.79574,1.00783,4.13337,3.13882,5.12849,1.00262
1.98,2.80491,1.00791,4.10537,3.11081,5.10044,1.00268
1.99,2.81393,1.00797,4.07727,3.08278,5.07231,1.0027
2,2.8231,1.00806,4.04909,3.05465,5.04404,1.00271
2.01,2.83219,1.00813,4.02081,3.02647,5.01574,1.00272
2.02,2.84106,1.00809,3.99245,2.99808,4.98743,1.00272
2.03,2.84995,1.00812,3.96399,2.96964,4.95899,1.00275
2.04,2.85892,1.00817,3.93545,2.9411,4.93034,1.00274
2.05,2.86765,1.00823,3.90682,2.91245,4.90164,1.00277
2.06,2.87651,1.00829,3.8781,2.88382,4.87294,1.00281
2.07,2.88495,1.00837,3.84929,2.85511,4.84409,1.00281
2.08,2.89356,1.00841,3.8204,2.82629,4.81518,1.0028
2.09,2.90198,1.00843,3.79142,2.79732,4.78624,1.00284
2.1,2.91065,1.00853,3.76236,2.7682,4.75702,1.00289
2.11,2.9193,1.0086,3.73321,2.73907,4.72781,1.00292
2.12,2.92772,1.00872,3.70398,2.71,4.69852,1.00293
2.13,2.93634,1.0088,3.67466,2.68081,4.66918,1.00293
2.14,2.9449,1.00874,3.64525,2.65138,4.6399,1.00295
2.15,2.95357,1.0087,3.61576,2.62184,4.61045,1.00295
2.16,2.96201,1.0087,3.58618,2.59218,4.58075,1.00294
2.17,2.97057,1.00881,3.55652,2.56258,4.55096,1.00295
2.18,2.97907,1.00891,3.52677,2.53295,4.52121,1.00299
2.19,2.98726,1.00899,3.49694,2.50318,4.49137,1.00304
2.2,2.99523,1.00907,3.46703,2.47333,4.46143,1.00306
2.21,3.00319,1.00914,3.43704,2.4434,4.43138,1.00308
2.22,3.01115,1.00924,3.40697,2.41334,4.40121,1.00312
2.23,3.01843,1.0093,3.37682,2.38322,4.37103,1.00314
2.24,3.02626,1.00936,3.3466,2.3531,4.34079,1.00315
2.25,3.03408,1.00938,3.3163,2.32284,4.31049,1.00314
2.26,3.04203,1.00932,3.28592,2.29242,4.28019,1.00315
2.27,3.04984,1.00931,3.25546,2.26193,4.24975,1.00316
2.28,3.05742,1.00933,3.22493,2.23136,4.21915,1.00317
2.29,3.06509,1.00942,3.19431,2.2008,4.18842,1.00317
2.3,3.07242,1.00947,3.16363,2.17021,4.15775,1.00318
2.31,3.07988,1.00953,3.13286,2.13948,4.12697,1.00321
2.32,3.08722,1.00959,3.10203,2.10868,4.0961,1.00324
2.33,3.09424,1.00968,3.07112,2.07785,4.06513,1.00326
2.34,3.10164,1.00978,3.04014,2.04696,4.03408,1.00328
2.35,3.10896,1.00981,3.00909,2.01591,4.00302,1.0033
2.36,3.11606,1.00984,2.97797,1.98482,3.97192,1.00333
2.37,3.12325,1.00988,2.94677,1.95367,3.9407,1.00333
2.38,3.13026,1.00991,2.9155,1.92243,3.90939,1.00333
2.39,3.13711,1.00994,2.88416,1.89113,3.87807,1.00334
2.4,3.1439,1.00998,2.85276,1.85973,3.84664,1.00337
2.41,3.15072,1.01006,2.82128,1.82829,3.81508,1.00338
2.42,3.15747,1.01013,2.78974,1.79683,3.78349,1.0034
2.43,3.16408,1.01022,2.75814,1.7653,3.75185,1.00343
2.44,3.17016,1.01028,2.72646,1.73364,3.72015,1.00347
2.45,3.17641,1.01035,2.69473,1.70194,3.68837,1.00349
2.46,3.1826,1.01043,2.66294,1.67024,3.65652,1.0035
2.47,3.18874,1.01047,2.63108,1.6384,3.62465,1.00352
2.48,3.19479,1.01047,2.59916,1.60648,3.59277,1.00354
2.49,3.20074,1.01048,2.56719,1.57452,3.5608,1.00355
2.5,3.20676,1.01053,2.53515,1.54252,3.52872,1.00355
2.51,3.21231,1.01058,2.50306,1.51048,3.49661,1.00357
2.52,3.21678,1.01063,2.47091,1.47837,3.46444,1.00359
2.53,3.22193,1.01072,2.43872,1.4462,3.43214,1.00362
2.54,3.22714,1.01081,2.40648,1.41401,3.39981,1.00363
2.55,3.23198,1.01092,2.37418,1.3818,3.36744,1.00366
2.56,3.23663,1.01098,2.34184,1.34948,3.33505,1.00369
2.57,3.24122,1.01103,2.30945,1.31711,3.30264,1.00371
2.58,3.24581,1.01108,2.27702,1.28475,3.27018,1.00372
2.59,3.25001,1.01112,2.24454,1.2523,3.23766,1.00372
2.6,3.25399,1.01111,2.21202,1.2198,3.20519,1.00373
2.61,3.25787,1.0111,2.17946,1.18724,3.17267,1.00374
2.62,3.2616,1.01114,2.14686,1.15467,3.14006,1.00375
2.63,3.26491,1.01118,2.11423,1.12209,3.10742,1.00376
2.64,3.26783,1.01123,2.08157,1.0895,3.07478,1.00379
2.65,3.27053,1.01132,2.04888,1.05684,3.04202,1.00382
2.66,3.27299,1.01143,2.01616,1.02421,3.00921,1.00384
2.67,3.27489,1.01157,1.98342,0.991578,2.97635,1.00387
2.68,3.27636,1.01167,1.95067,0.958897,2.94351,1.00389
2.69,3.27752,1.01171,1.9179,0.926151,2.91074,1.00391
2.7,3.27832,1.01174,1.88512,0.893412,2.87796,1.00392
2.71,3.27872,1.01175,1.85233,0.860659,2.84518,1.00392
2.72,3.27879,1.01179,1.81955,0.82794,2.81242,1.00393
2.73,3.27848,1.0118,1.78676,0.795195,2.7797,1.00396
2.74,3.27732,1.01187,1.75398,0.762492,2.74691,1.00399
2.75,3.27533,1.01197,1.72122,0.729837,2.71409,1.004
2.76,3.27257,1.01211,1.68848,0.697239,2.68127,1.00403
2.77,3.26904,1.01227,1.65577,0.664645,2.64845,1.00407
2.78,3.26462,1.0124,1.62311,0.632052,2.61566,1.0041
2.79,3.25924,1.01255,1.59049,0.599588,2.58296,1.00413
2.8,3.2527,1.01265,1.55793,0.567147,2.55038,1.00415
2.81,3.24533,1.01271,1.52544,0.534757,2.51792,1.00418
2.82,3.23676,1.01279,1.49303,0.502476,2.48553,1.00421
2.83,3.22648,1.01292,1.46071,0.470351,2.45321,1.00424
2.84,3.21494,1.01308,1.4285,0.438356,2.42096,1.00426
2.85,3.20158,1.01323,1.39642,0.406486,2.38885,1.0043
2.86,3.18623,1.01342,1.36448,0.374756,2.35687,1.00435
2.87,3.16854,1.01366,1.33271,0.343283,2.32503,1.00441
2.88,3.14833,1.01397,1.30112,0.31207,2.29333,1.00447
2.89,3.12528,1.01434,1.26975,0.281169,2.26185,1.00454
2.9,3.09883,1.01474,1.23863,0.250534,2.23062,1.00463
2.91,3.06889,1.0152,1.20779,0.220288,2.19966,1.00473
2.92,3.03468,1.01571,1.17727,0.190468,2.16902,1.00482
2.93,2.99555,1.01639,1.14712,0.161264,2.1387,1.00492
2.94,2.95063,1.0172,1.11739,0.132684,2.1088,1.00506
2.95,2.8987,1.01828,1.08814,0.104931,2.07928,1.00522
2.96,2.838,1.01983,1.05945,0.0784785,2.05023,1.00542
2.97,2.76575,1.02191,1.03143,0.0534791,2.02176,1.00571
2.98,2.67872,1.02528,1.0042,0.0314967,1.99405,1.00608
2.99,2.57004,1.03138,0.977938,0.0150752,1.96699,1.00658
3,2.43066,1.04134,0.952911,0.006315,1.94078,1.00722
3.01,2.2429,1.05314,0.929499,0.000819642,1.9157,1.00832
3.02,1.98463,1.06848,0.9083,0.000454561,1.89175,1.01041
3.03,1.65654,1.08531,0.890037,3.79249e-08,1.86915,1.01431
3.04,1.25752,1.10203,0.875411,-0,1.84838,1.01849
3.05,0.802158,1.11933,0.865074,-0,1.82768,1.02289
3.06,0.326473,1.13143,0.859411,-0,1.81443,1.02645
3.07,-0.159323,1.13552,0.858563,-0,1.81055,1.02796
3.08,-0.642229,1.13214,0.862578,5.03096e-05,1.8149,1.02734
3.09,-1.0821,1.11859,0.871213,3.5867e-05,1.83041,1.02372
3.1,-1.49034,1.09994,0.884106,-0,1.852,1.01855
3.11,-1.83108,1.07959,0.900766,-0,1.87713,1.01327
3.12,-2.08395,1.05794,0.920402,-0,1.90655,1.0085
3.13,-2.24721,1.03958,0.942127,-0,1.93311,1.00481
3.14,-2.32311,1.02341,0.965036,7.58335e-05,1.95885,1.00232
3.15,-2.32792,1.00902,0.988334,0.000301258,1.98445,1.00102
3.16,-2.28139,0.995539,1.01141,0.000490275,2.01008,1.00031
3.17,-2.20408,0.99136,1.03384,0.0165125,2.0328,0.999436
3.18,-2.11882,0.995042,1.05544,0.0483275,2.05518,0.998453
3.19,-2.06258,0.997723,1.07632,0.0780104,2.0777,0.997567
3.2,-2.0327,0.999984,1.09677,0.103559,2.09867,0.997541
3.21,-2.01549,1.00697,1.11701,0.128312,2.11759,1.00157
3.22,-2.00579,1.01138,1.13711,0.151499,2.13914,1.00513
3.23,-1.99722,1.02063,1.15712,0.171776,2.14513,1.00703
3.24,-1.99134,1.02809,1.17706,0.19176,2.15189,1.0076
3.25,-1.98996,1.02635,1.19696,0.210756,2.17518,1.00809
3.26,-2.00431,1.02096,1.21691,0.229921,2.20366,1.00755
3.27,-2.02731,1.01089,1.23707,0.2465,2.23212,1.00362
3.28,-2.04906,1.00387,1.25745,0.266991,2.25881,0.999763
3.29,-2.04542,0.993024,1.27796,0.273089,2.28172,0.997308
3.3,-2.00714,0.987798,1.29824,0.283204,2.30244,0.997297
3.31,-1.95447,0.990837,1.31805,0.30677,2.32007,0.997427
3.32,-1.90327,0.995234,1.33733,0.335399,2.33945,0.997252
3.33,-1.86191,1.0049,1.35614,0.362715,2.35293,0.999985
3.34,-1.83516,1.00984,1.37462,0.387261,2.3748,1.00355
3.35,-1.81357,1.01605,1.39286,0.407126,2.38885,1.00677
3.36,-1.79861,1.02179,1.41091,0.423086,2.39429,1.00707
3.37,-1.78568,1.02298,1.42883,0.440221,2.40752,1.00626
3.38,-1.77858,1.01771,1.44665,0.454185,2.43095,1.00589
3.39,-1.78132,1.00776,1.46444,0.467189,2.45828,1.00327
3.4,-1.78454,1.0009,1.48227,0.48738,2.48505,0.99973
3.41,-1.77997,0.992452,1.5001,0.500231,2.50828,0.996446
3.42,-1.7559,0.98748,1.5178,0.507225,2.52447,0.995992
3.43,-1.71726,0.988598,1.53517,0.522169,2.53978,0.997304
3.44,-1.67127,0.99395,1.55211,0.545433,2.55405,0.998233
3.45,-1.62582,1.00503,1.56859,0.573066,2.56333,1.00014
3.46,-1.59004,1.01152,1.58466,0.596237,2.57956,1.00309
3.47,-1.56679,1.01651,1.60044,0.616498,2.59664,1.00641
3.48,-1.54981,1.01855,1.61602,0.628141,2.60544,1.00699
3.49,-1.53752,1.01869,1.63146,0.641352,2.61529,1.00542
3.5,-1.52451,1.01408,1.64677,0.651866,2.63152,1.00377
3.51,-1.51755,1.00343,1.66197,0.659955,2.65659,1.00174
3.52,-1.51356,0.99661,1.67713,0.67519,2.68051,0.999262
3.53,-1.50255,0.990426,1.69222,0.69188,2.70321,0.996038
3.54,-1.47987,0.988144,1.70714,0.701503,2.71613,0.995369
3.55,-1.44647,0.989402,1.72177,0.711709,2.72713,0.997032
3.56,-1.40673,0.994831,1.73604,0.728926,2.73774,0.999215
3.57,-1.36534,1.00525,1.7499,0.751636,2.74376,1.00129
3.58,-1.33007,1.01336,1.76337,0.77386,2.75357,1.00308
3.59,-1.30767,1.01736,1.77655,0.792751,2.76998,1.00578
3.6,-1.29141,1.01618,1.78954,0.801929,2.783,1.00656
3.61,-1.28003,1.01403,1.8024,0.810313,2.79203,1.00476
3.62,-1.26679,1.00929,1.81514,0.818642,2.80438,1.00209
3.63,-1.25431,0.999885,1.82774,0.823186,2.82292,0.999751
3.64,-1.24293,0.993093,1.84022,0.833125,2.84346,0.998224
3.65,-1.22801,0.988099,1.85259,0.847995,2.8643,0.996156
3.66,-1.20331,0.988801,1.86475,0.862247,2.87572,0.995463
3.67,-1.17177,0.991792,1.87663,0.871266,2.88179,0.997013
3.68,-1.13691,0.997297,1.88817,0.883574,2.88893,0.999969
3.69,-1.10102,1.00621,1.89936,0.899999,2.89271,1.00254
3.7,-1.06909,1.01384,1.91021,0.918547,2.89857,1.00372
3.71,-1.04651,1.01787,1.92077,0.935626,2.91049,1.00508
3.72,-1.0324,1.01455,1.93117,0.943845,2.92592,1.00545
3.73,-1.02116,1.00952,1.94144,0.947515,2.93652,1.00397
3.74,-1.00752,1.00405,1.95158,0.95303,2.94668,1.00086
3.75,-0.992163,0.996468,1.96158,0.955846,2.95916,0.998118
