time,velocity,ratio,centerX,Xmax,Xmin,Ymax
0,0,1,3.5,2.5,4.5,1
0.01,0.0196686,1,3.49991,2.49991,4.4999,1
0.02,0.0392714,1.00001,3.49962,2.49962,4.4996,1
0.03,0.0588006,1.00002,3.49913,2.49913,4.49911,1
0.04,0.0782454,1.00002,3.49845,2.49846,4.49842,1.00001
0.05,0.097612,1.00004,3.49757,2.49759,4.49753,1.00001
0.06,0.116898,1.00006,3.49651,2.49654,4.49644,1.00001
0.07,0.136111,1.00007,3.49525,2.49529,4.49518,1.00001
0.08,0.155248,1.00011,3.49379,2.49388,4.49369,1.00001
0.09,0.174308,1.00011,3.49215,2.49225,4.49204,1.00001
0.1,0.193297,1.00017,3.49032,2.49045,4.49019,1.00004
0.11,0.212203,1.00024,3.48829,2.48847,4.48813,1.00007
0.12,0.231028,1.00032,3.48608,2.48631,4.48588,1.0001
0.13,0.249947,1.00041,3.48368,2.48398,4.48343,1.00013
0.14,0.268652,1.00052,3.4811,2.48147,4.48076,1.00016
0.15,0.287246,1.00064,3.47832,2.47879,4.47789,1.0002
0.16,0.305753,1.0008,3.47536,2.47592,4.47481,1.00025
0.17,0.324179,1.00104,3.47221,2.47293,4.4715,1.00032
0.18,0.342509,1.00127,3.46889,2.46974,4.46801,1.0004
0.19,0.360791,1.00152,3.46537,2.46642,4.46432,1.00047
0.2,0.378932,1.00178,3.46168,2.4629,4.46044,1.00055
0.21,0.396977,1.00212,3.4578,2.45921,4.45633,1.00068
0.22,0.414895,1.0025,3.45375,2.45539,4.45202,1.00082
0.23,0.432722,1.00292,3.44952,2.4514,4.44747,1.00095
0.24,0.450523,1.00339,3.4451,2.44728,4.44268,1.00108
0.25,0.468139,1.00394,3.44051,2.44302,4.43771,1.00127
0.26,0.485721,1.00452,3.43575,2.4386,4.43252,1.00147
0.27,0.503061,1.00514,3.43081,2.43402,4.42712,1.00167
0.28,0.520317,1.00587,3.4257,2.42931,4.42144,1.00191
0.29,0.537423,1.00666,3.42041,2.42449,4.41557,1.00217
0.3,0.55437,1.00748,3.41496,2.41953,4.40949,1.00242
0.31,0.571232,1.00839,3.40933,2.41439,4.40318,1.00274
0.32,0.587915,1.00943,3.40354,2.40916,4.39656,1.00307
0.33,0.6045,1.01047,3.39758,2.40381,4.38977,1.00337
0.34,0.620854,1.01163,3.39146,2.39832,4.38279,1.00377
0.35,0.637014,1.01289,3.38517,2.39269,4.37546,1.00416
0.36,0.653053,1.01421,3.37873,2.38697,4.36795,1.00457
0.37,0.668824,1.01565,3.37212,2.38114,4.36022,1.00503
0.38,0.684447,1.01713,3.36536,2.37515,4.35224,1.00548
0.39,0.69986,1.01874,3.35844,2.3691,4.34407,1.006
0.4,0.715233,1.02043,3.35137,2.36292,4.33564,1.00652
0.41,0.730285,1.02226,3.34415,2.3566,4.3269,1.00708
0.42,0.74431,1.02412,3.33677,2.35021,4.31806,1.00766
0.43,0.759315,1.02611,3.32926,2.34366,4.30888,1.00827
0.44,0.774165,1.0282,3.3216,2.33707,4.29955,1.00891
0.45,0.78865,1.03037,3.31378,2.33036,4.28996,1.00956
0.46,0.802838,1.03263,3.30583,2.32349,4.28017,1.01027
0.47,0.816738,1.03498,3.29774,2.31657,4.27016,1.01097
0.48,0.83037,1.03749,3.2895,2.30949,4.25987,1.01175
0.49,0.843694,1.04002,3.28114,2.30238,4.24945,1.01249
0.5,0.856807,1.0427,3.27264,2.29512,4.23877,1.01332
0.51,0.869693,1.04543,3.26401,2.28782,4.22792,1.01412
0.52,0.882387,1.04828,3.25525,2.2804,4.21691,1.015
0.53,0.894859,1.05115,3.24637,2.27287,4.20572,1.01586
0.54,0.907118,1.05423,3.23736,2.2653,4.19427,1.01678
0.55,0.919107,1.05728,3.22823,2.25759,4.1827,1.0177
0.56,0.930993,1.06047,3.21898,2.24982,4.17098,1.01866
0.57,0.942621,1.0637,3.20962,2.24195,4.15911,1.01964
0.58,0.954082,1.06701,3.20014,2.23403,4.14709,1.02063
0.59,0.965376,1.07046,3.19054,2.22598,4.13486,1.02168
0.6,0.976006,1.07384,3.18084,2.21788,4.12262,1.0227
0.61,0.98671,1.07747,3.17103,2.20969,4.11008,1.0238
0.62,0.99721,1.08103,3.16111,2.20141,4.09752,1.02488
0.63,1.00756,1.08472,3.15109,2.19309,4.08483,1.026
0.64,1.01776,1.08842,3.14097,2.18461,4.07201,1.02713
0.65,1.02777,1.09215,3.13074,2.17615,4.05914,1.02826
0.66,1.03751,1.096,3.12042,2.16753,4.04608,1.02944
0.67,1.04704,1.09986,3.11,2.15891,4.03299,1.03062
0.68,1.05645,1.10371,3.09948,2.15014,4.01986,1.03181
0.69,1.06564,1.10769,3.08888,2.14135,4.00653,1.03302
0.7,1.07475,1.11161,3.07818,2.13247,3.99324,1.03423
0.71,1.08338,1.1156,3.06739,2.12347,3.97983,1.03548
0.72,1.09211,1.11965,3.05651,2.11449,3.96638,1.03673
0.73,1.10049,1.12364,3.04555,2.10536,3.95289,1.03798
0.74,1.10886,1.12776,3.03451,2.09621,3.93929,1.03928
0.75,1.11689,1.13188,3.02338,2.08699,3.92563,1.04057
0.76,1.1239,1.13594,3.01218,2.07764,3.91197,1.04184
0.77,1.13131,1.14007,3.00091,2.06834,3.89833,1.04316
0.78,1.13879,1.14419,2.98956,2.05888,3.88459,1.04448
0.79,1.14636,1.14829,2.97813,2.04937,3.87083,1.04579
0.8,1.15389,1.15244,2.96663,2.03986,3.85702,1.04709
0.81,1.16133,1.15658,2.95506,2.03019,3.84317,1.04843
0.82,1.1687,1.16073,2.94341,2.0205,3.82928,1.04975
0.83,1.17593,1.16482,2.93169,2.01079,3.81542,1.05104
0.84,1.1831,1.1689,2.9199,2.0009,3.80153,1.05237
0.85,1.19031,1.173,2.90803,1.99102,3.78764,1.05372
0.86,1.1973,1.17705,2.8961,1.9811,3.77378,1.05503
0.87,1.20416,1.18099,2.88409,1.97104,3.7599,1.05632
0.88,1.2112,1.18502,2.87202,1.96098,3.74598,1.05763
0.89,1.21793,1.18914,2.85987,1.95088,3.73193,1.05896
0.9,1.22459,1.19312,2.84766,1.94064,3.71793,1.06026
0.91,1.23114,1.19702,2.83539,1.93035,3.70397,1.06153
0.92,1.23764,1.201,2.82304,1.92006,3.68989,1.06278
0.93,1.24415,1.20494,2.81064,1.90963,3.67581,1.06407
0.94,1.25048,1.20884,2.79817,1.89912,3.6617,1.06534
0.95,1.25683,1.21271,2.78563,1.88862,3.64764,1.06659
0.96,1.2631,1.21656,2.77303,1.87804,3.63351,1.06782
0.97,1.2693,1.22033,2.76037,1.86732,3.61937,1.06903
0.98,1.27545,1.22407,2.74765,1.85658,3.60522,1.07023
0.99,1.28172,1.22784,2.73487,1.84582,3.59107,1.07144
1,1.28782,1.23153,2.72202,1.83494,3.57689,1.07263
1.01,1.29392,1.23518,2.70912,1.82397,3.56267,1.0738
1.02,1.29986,1.23883,2.69615,1.81296,3.54839,1.07495
1.03,1.30583,1.24247,2.68312,1.80194,3.53409,1.07607
1.04,1.31171,1.246,2.67004,1.79081,3.5198,1.07716
1.05,1.3176,1.24947,2.65689,1.77956,3.50547,1.07824
1.06,1.32361,1.25289,2.64369,1.76825,3.49114,1.0793
1.07,1.32941,1.25639,2.63042,1.75692,3.47673,1.08037
1.08,1.33526,1.25983,2.6171,1.74554,3.46231,1.08142
1.09,1.34104,1.26323,2.60372,1.73403,3.4478,1.08245
1.1,1.34682,1.26656,2.59029,1.72243,3.43328,1.08344
1.11,1.35248,1.26987,2.57679,1.71081,3.41872,1.08441
1.12,1.35807,1.27318,2.56324,1.69918,3.40413,1.08536
1.13,1.36354,1.27641,2.54963,1.68745,3.38954,1.08628
1.14,1.36913,1.27961,2.53597,1.67564,3.37488,1.08719
1.15,1.37469,1.28278,2.52225,1.66373,3.36017,1.08807
1.16,1.38012,1.28591,2.50848,1.65179,3.34544,1.08895
1.17,1.38567,1.28901,2.49466,1.63977,3.33073,1.08983
1.18,1.39095,1.2921,2.48077,1.62769,3.31593,1.09069
1.19,1.39619,1.29513,2.46684,1.61553,3.30111,1.09152
1.2,1.40153,1.29808,2.45285,1.60327,3.28625,1.09232
1.21,1.40686,1.30097,2.43881,1.59091,3.27136,1.09311
1.22,1.41207,1.30382,2.42472,1.57847,3.25643,1.09388
1.23,1.41755,1.30666,2.41058,1.56597,3.24144,1.09463
1.24,1.42293,1.30947,2.39637,1.55341,3.2264,1.09537
1.25,1.42812,1.31222,2.38212,1.54076,3.21136,1.09609
1.26,1.43344,1.31492,2.36781,1.52803,3.19627,1.0968
1.27,1.439,1.31759,2.35345,1.51523,3.18114,1.09749
1.28,1.44452,1.32021,2.33904,1.50234,3.16598,1.09818
1.29,1.45025,1.3228,2.32457,1.48937,3.15077,1.09885
1.3,1.45562,1.32536,2.31004,1.47633,3.13552,1.09952
1.31,1.46093,1.3279,2.29546,1.4632,3.12021,1.10017
1.32,1.46613,1.33044,2.28083,1.45001,3.10483,1.10082
1.33,1.47124,1.33292,2.26614,1.43673,3.08942,1.10145
1.34,1.47625,1.33537,2.2514,1.42338,3.07397,1.10208
1.35,1.48138,1.33781,2.23662,1.40993,3.05844,1.10269
1.36,1.48638,1.34022,2.22178,1.39641,3.04286,1.1033
1.37,1.4913,1.34258,2.20689,1.38282,3.02726,1.10389
1.38,1.49622,1.34485,2.19196,1.36912,3.01165,1.10448
1.39,1.50107,1.34716,2.17697,1.35535,2.99594,1.10507
1.4,1.50582,1.34948,2.16194,1.34152,2.98015,1.10565
1.41,1.5106,1.35177,2.14686,1.32761,2.96431,1.10622
1.42,1.5153,1.35403,2.13173,1.31365,2.94846,1.1068
1.43,1.51986,1.35625,2.11656,1.29961,2.93259,1.10737
1.44,1.52442,1.35848,2.10134,1.28552,2.91666,1.10793
1.45,1.52889,1.3607,2.08607,1.27139,2.90069,1.10849
1.46,1.53319,1.3629,2.07077,1.25719,2.88467,1.10905
1.47,1.53749,1.36508,2.05541,1.2429,2.86861,1.10961
1.48,1.54172,1.3673,2.04002,1.22857,2.85246,1.11017
1.49,1.54589,1.3695,2.02458,1.21419,2.83628,1.11073
1.5,1.54993,1.37169,2.00911,1.19973,2.82005,1.11129
1.51,1.55398,1.37387,1.99359,1.18519,2.80378,1.11186
1.52,1.55776,1.37608,1.97803,1.17062,2.78743,1.11243
1.53,1.56156,1.37826,1.96244,1.156,2.77107,1.113
1.54,1.56528,1.38045,1.9468,1.14134,2.75469,1.11357
1.55,1.56877,1.38267,1.93113,1.12665,2.73822,1.11414
1.56,1.57225,1.38495,1.91543,1.11193,2.72168,1.11471
1.57,1.57566,1.38721,1.89969,1.09718,2.70514,1.11529
1.58,1.57901,1.38952,1.88392,1.08241,2.68855,1.11588
1.59,1.58224,1.39188,1.86811,1.06761,2.67186,1.11647
1.6,1.58521,1.39423,1.85228,1.05276,2.65517,1.11707
1.61,1.58825,1.3966,1.83641,1.0379,2.63846,1.11768
1.62,1.59106,1.399,1.82052,1.02302,2.62173,1.1183
1.63,1.59368,1.40144,1.8046,1.00812,2.60493,1.11892
1.64,1.59621,1.40389,1.78865,0.993172,2.5881,1.11955
1.65,1.59858,1.40635,1.77267,0.97825,2.5713,1.1202
1.66,1.6008,1.40888,1.75668,0.963321,2.55444,1.12084
1.67,1.60289,1.41144,1.74066,0.948396,2.53755,1.1215
1.68,1.60481,1.41404,1.72462,0.933451,2.52063,1.12217
1.69,1.60663,1.41669,1.70857,0.918508,2.50367,1.12284
1.7,1.60824,1.4194,1.69249,0.90357,2.48667,1.12353
1.71,1.60967,1.42217,1.67641,0.888651,2.46964,1.12422
1.72,1.61088,1.425,1.66031,0.873736,2.45258,1.12493
1.73,1.61206,1.42793,1.64419,0.858852,2.43547,1.12564
1.74,1.61307,1.43089,1.62807,0.843984,2.41835,1.12637
1.75,1.61373,1.43395,1.61193,0.829137,2.40117,1.12711
1.76,1.61423,1.43702,1.5958,0.814305,2.38402,1.12786
1.77,1.61462,1.44019,1.57965,0.799493,2.36682,1.12863
1.78,1.61478,1.44342,1.56351,0.784721,2.34963,1.12941
1.79,1.61478,1.44673,1.54736,0.76999,2.33242,1.13021
1.8,1.61455,1.45008,1.53121,0.755299,2.31523,1.13101
1.81,1.61403,1.45353,1.51507,0.740637,2.298,1.13183
1.82,1.61337,1.45709,1.49894,0.726042,2.28074,1.13267
1.83,1.6125,1.4607,1.48281,0.711495,2.2635,1.13351
1.84,1.61144,1.46438,1.46669,0.696992,2.24626,1.13436
1.85,1.61013,1.46815,1.45058,0.682538,2.229,1.13522
1.86,1.60857,1.47201,1.43449,0.668163,2.21176,1.13609
1.87,1.60688,1.47587,1.41841,0.65386,2.19461,1.13698
1.88,1.60488,1.47984,1.40235,0.639618,2.17747,1.13789
1.89,1.60268,1.48391,1.38632,0.625429,2.16032,1.13882
1.9,1.59999,1.48808,1.3703,0.611306,2.14317,1.13977
1.91,1.59728,1.49235,1.35432,0.597268,2.12604,1.14073
1.92,1.59429,1.49668,1.33836,0.583314,2.10891,1.14167
1.93,1.59109,1.50116,1.32243,0.569458,2.0918,1.14264
1.94,1.5876,1.50569,1.30654,0.555688,2.07476,1.14363
1.95,1.58377,1.51035,1.29069,0.542024,2.05775,1.14464
1.96,1.57974,1.51509,1.27487,0.528467,2.04078,1.14565
1.97,1.57529,1.51999,1.25909,0.515031,2.02383,1.14668
1.98,1.57067,1.52495,1.24336,0.501711,2.00697,1.14772
1.99,1.56575,1.53002,1.22768,0.488515,1.99016,1.14877
2,1.56054,1.53517,1.21205,0.475447,1.97344,1.14984
2.01,1.55503,1.54041,1.19647,0.462496,1.95679,1.15091
2.02,1.54918,1.54581,1.18095,0.449701,1.94018,1.152
2.03,1.54294,1.55137,1.16549,0.437022,1.92359,1.1531
2.04,1.53646,1.55701,1.15009,0.424494,1.90708,1.1542
2.05,1.52961,1.56277,1.13476,0.412124,1.89067,1.15531
2.06,1.52244,1.56872,1.1195,0.399915,1.87429,1.15645
2.07,1.51494,1.57488,1.10432,0.387902,1.85798,1.1576
2.08,1.50705,1.58122,1.08921,0.376063,1.84174,1.15878
2.09,1.49879,1.58769,1.07418,0.364407,1.82564,1.15999
2.1,1.49011,1.59436,1.05923,0.352955,1.80962,1.16123
2.11,1.48118,1.60117,1.04438,0.341691,1.79373,1.16248
2.12,1.47173,1.60816,1.02961,0.330641,1.77795,1.16376
2.13,1.46187,1.61532,1.01494,0.319807,1.76231,1.16505
2.14,1.45166,1.62272,1.00037,0.309206,1.74674,1.16637
2.15,1.44091,1.63041,0.985911,0.298856,1.73125,1.16769
2.16,1.42967,1.63833,0.971558,0.288745,1.71585,1.16904
2.17,1.41798,1.64645,0.95732,0.278864,1.7006,1.17041
2.18,1.40585,1.65483,0.9432,0.269224,1.68545,1.17181
2.19,1.39339,1.66343,0.929204,0.259832,1.67042,1.17321
2.2,1.38024,1.67226,0.915335,0.250678,1.65555,1.17465
2.21,1.36668,1.68138,0.9016,0.241809,1.6408,1.17612
2.22,1.35266,1.69088,0.888004,0.233246,1.62615,1.17762
2.23,1.33809,1.70066,0.874549,0.224942,1.61164,1.17915
2.24,1.32308,1.71072,0.861244,0.216886,1.59725,1.18071
2.25,1.30758,1.72104,0.84809,0.209115,1.58305,1.1823
2.26,1.29159,1.73166,0.835095,0.201611,1.56899,1.18392
2.27,1.27514,1.74259,0.822261,0.194421,1.55512,1.18557
2.28,1.25803,1.75381,0.809595,0.18747,1.5414,1.18726
2.29,1.24042,1.76545,0.797102,0.180849,1.52778,1.18897
2.3,1.22217,1.77744,0.784789,0.17451,1.51431,1.19071
2.31,1.20325,1.78978,0.772662,0.168418,1.50098,1.1925
2.32,1.18381,1.80244,0.760726,0.162606,1.48783,1.19432
2.33,1.1639,1.81542,0.748987,0.157087,1.4749,1.19619
2.34,1.14328,1.82881,0.737452,0.151879,1.46211,1.19809
2.35,1.12204,1.84271,0.726124,0.146948,1.44945,1.20007
2.36,1.10021,1.8569,0.715013,0.142256,1.43697,1.20208
2.37,1.07773,1.87109,0.704125,0.137686,1.42478,1.20413
2.38,1.05474,1.88495,0.69346,0.133092,1.41289,1.20618
2.39,1.03105,1.89873,0.683033,0.128492,1.40121,1.20828
2.4,1.00671,1.91249,0.67285,0.123871,1.38969,1.21043
2.41,0.981661,1.92618,0.662903,0.119246,1.37835,1.21262
2.42,0.955841,1.93966,0.653214,0.114632,1.36725,1.21483
2.43,0.92933,1.95299,0.643793,0.110024,1.35648,1.21716
2.44,0.901956,1.96622,0.634637,0.105434,1.3459,1.21951
2.45,0.873963,1.97947,0.625755,0.100866,1.33545,1.22191
2.46,0.84526,1.99242,0.617159,0.096337,1.32526,1.22426
2.47,0.815896,2.00528,0.608857,0.0918683,1.31533,1.22669
2.48,0.785583,2.01789,0.600847,0.0874593,1.30577,1.22921
2.49,0.754465,2.03032,0.593145,0.083114,1.29639,1.23166
2.5,0.722562,2.04251,0.585763,0.078892,1.28733,1.23413
2.51,0.689827,2.05457,0.578702,0.0747401,1.27857,1.23667
2.52,0.656385,2.06617,0.571968,0.070644,1.2701,1.23914
2.53,0.622311,2.07755,0.565574,0.0666828,1.26191,1.24158
2.54,0.587651,2.08859,0.559527,0.0628804,1.25409,1.24398
2.55,0.552341,2.09952,0.553828,0.0592033,1.24643,1.2463
2.56,0.516456,2.11003,0.548481,0.0556819,1.2392,1.24863
2.57,0.480209,2.12007,0.543496,0.0522892,1.23225,1.25081
2.58,0.443848,2.12946,0.538876,0.0490473,1.22572,1.25284
2.59,0.407326,2.13866,0.534623,0.0460518,1.21949,1.25479
2.6,0.370688,2.14736,0.530732,0.0433371,1.21363,1.25652
2.61,0.334061,2.15515,0.527206,0.0407202,1.20814,1.25798
2.62,0.29754,2.16301,0.524047,0.0384716,1.20295,1.25939
2.63,0.260927,2.17018,0.521253,0.0362704,1.19796,1.26055
2.64,0.224453,2.17678,0.518825,0.0344139,1.19343,1.26145
2.65,0.188294,2.18248,0.516761,0.0326173,1.18927,1.26218
2.66,0.152439,2.18782,0.515057,0.0310497,1.1854,1.26275
2.67,0.117011,2.19232,0.513709,0.0295951,1.18203,1.26325
2.68,0.0821449,2.19608,0.512712,0.0283157,1.17908,1.26359
2.69,0.0480535,2.19954,0.512059,0.0271274,1.17625,1.26377
2.7,0.0149523,2.20225,0.511743,0.0261956,1.17383,1.26369
2.71,-0.0172197,2.20331,0.511753,0.0251737,1.17187,1.26326
2.72,-0.0484923,2.20389,0.51208,0.0243978,1.17007,1.26247
2.73,-0.07878,2.20334,0.512715,0.0237462,1.16882,1.26149
2.74,-0.108123,2.20166,0.513648,0.0232441,1.16798,1.26016
2.75,-0.136463,2.19905,0.514869,0.0228451,1.16754,1.25862
2.76,-0.163891,2.19558,0.516369,0.0224184,1.16732,1.25687
2.77,-0.190426,2.19114,0.518139,0.022148,1.16757,1.25489
2.78,-0.216027,2.18558,0.520169,0.0219722,1.16829,1.25268
2.79,-0.24068,2.1794,0.52245,0.0218868,1.16922,1.25025
2.8,-0.26442,2.17211,0.524973,0.021814,1.17063,1.24768
2.81,-0.287441,2.16422,0.527729,0.0218428,1.17236,1.24499
2.82,-0.309642,2.15518,0.530712,0.0219111,1.17465,1.24218
2.83,-0.331104,2.14545,0.533913,0.0219896,1.17722,1.23925
2.84,-0.351843,2.13514,0.537325,0.0221107,1.18007,1.23621
2.85,-0.371736,2.12388,0.54094,0.0223102,1.1834,1.23301
2.86,-0.390928,2.11162,0.54475,0.0225364,1.18729,1.22975
2.87,-0.409573,2.09839,0.548749,0.0228085,1.1917,1.22639
2.88,-0.427583,2.08409,0.552932,0.0231048,1.19677,1.22301
2.89,-0.444907,2.06833,0.557291,0.0234706,1.20263,1.21945
2.9,-0.461663,2.05209,0.561821,0.0237159,1.20874,1.21589
2.91,-0.477942,2.03533,0.566516,0.0240909,1.21527,1.21223
2.92,-0.493709,2.01822,0.571371,0.0244424,1.22206,1.20853
2.93,-0.508928,2.00099,0.576381,0.0248174,1.229,1.20478
2.94,-0.523673,1.98374,0.581541,0.025066,1.23587,1.20096
2.95,-0.537947,1.96684,0.586846,0.0254548,1.24275,1.19711
2.96,-0.551771,1.94873,0.592292,0.025792,1.25045,1.19327
2.97,-0.565182,1.93055,0.597874,0.0261097,1.25824,1.18934
2.98,-0.578229,1.91204,0.603588,0.0264403,1.26631,1.18535
2.99,-0.590873,1.89325,0.609431,0.0267079,1.27477,1.18145
3,-0.60314,1.87481,0.615398,0.0270732,1.28313,1.17743
3.01,-0.615005,1.85566,0.621486,0.0274267,1.29214,1.17344
3.02,-0.626505,1.8358,0.62769,0.0277759,1.30179,1.16942
3.03,-0.637651,1.81578,0.634008,0.0280967,1.31169,1.16536
3.04,-0.64848,1.79512,0.640436,0.0284224,1.32232,1.16135
3.05,-0.6589,1.77455,0.646969,0.0287439,1.33298,1.15721
3.06,-0.668983,1.75388,0.653606,0.029148,1.34407,1.1531
3.07,-0.678672,1.7326,0.660342,0.0295269,1.35585,1.14899
3.08,-0.688077,1.71176,0.667172,0.029946,1.36758,1.14485
3.09,-0.697043,1.69085,0.674095,0.0304162,1.37977,1.14078
3.1,-0.705782,1.66998,0.681106,0.0308468,1.39209,1.13662
3.11,-0.714042,1.64955,0.688203,0.0313128,1.40461,1.13266
3.12,-0.721895,1.62903,0.695379,0.0319299,1.41761,1.12866
3.13,-0.729401,1.6093,0.702632,0.0325407,1.43029,1.1247
3.14,-0.736601,1.5892,0.709959,0.0331491,1.44365,1.12079
3.15,-0.743322,1.56988,0.717356,0.0338575,1.45674,1.11688
3.16,-0.749594,1.55049,0.724818,0.034545,1.47037,1.11312
3.17,-0.755463,1.53166,0.732341,0.0351899,1.48367,1.10929
3.18,-0.760924,1.51293,0.73992,0.0359122,1.49742,1.10558
3.19,-0.765964,1.49461,0.747552,0.0366222,1.51105,1.10185
3.2,-0.770478,1.47638,0.755232,0.0372238,1.52493,1.09821
3.21,-0.774559,1.45871,0.762955,0.0378503,1.53859,1.09458
3.22,-0.778151,1.44106,0.770716,0.0384559,1.55254,1.09095
3.23,-0.781197,1.42378,0.778511,0.0388545,1.5664,1.08744
3.24,-0.78376,1.40666,0.786334,0.0392071,1.58035,1.08394
3.25,-0.785735,1.39015,0.79418,0.0395243,1.59411,1.08055
3.26,-0.787163,1.37355,0.802043,0.0396549,1.6081,1.07717
3.27,-0.788082,1.35758,0.809918,0.0396646,1.62178,1.07392
3.28,-0.78804,1.34167,0.817797,0.0395656,1.63571,1.07075
3.29,-0.787661,1.32648,0.825674,0.0393958,1.64916,1.06766
3.3,-0.786724,1.31124,0.833544,0.0391293,1.66303,1.06466
3.31,-0.785177,1.29659,0.841403,0.0386827,1.67637,1.0617
3.32,-0.783034,1.28204,0.849242,0.0381415,1.69002,1.05889
3.33,-0.78032,1.26799,0.857058,0.0374996,1.70326,1.05608
3.34,-0.776978,1.25415,0.864843,0.0367478,1.71668,1.05344
3.35,-0.773088,1.2406,0.872592,0.0359284,1.72996,1.0508
3.36,-0.768545,1.22751,0.8803,0.0349388,1.74295,1.0483
3.37,-0.763403,1.21449,0.887958,0.0339182,1.75612,1.04579
3.38,-0.75771,1.20211,0.895563,0.0328589,1.76884,1.04342
3.39,-0.751469,1.18976,0.903108,0.0318023,1.78184,1.04107
3.4,-0.744711,1.17794,0.910588,0.0306864,1.79445,1.0388
3.41,-0.73731,1.16635,0.917997,0.0295779,1.80704,1.03657
3.42,-0.72936,1.15504,0.92533,0.0285019,1.81959,1.03439
3.43,-0.720919,1.14415,0.93258,0.0274642,1.83185,1.03225
3.44,-0.711957,1.13342,0.939744,0.026436,1.84416,1.03012
3.45,-0.702486,1.1232,0.946816,0.0254447,1.85603,1.02805
3.46,-0.69254,1.11305,0.95379,0.0244882,1.86804,1.02598
3.47,-0.682105,1.10329,0.960662,0.0234401,1.87967,1.02398
3.48,-0.671192,1.09366,0.967428,0.022422,1.89131,1.02196
3.49,-0.659839,1.08439,0.974083,0.0214015,1.90266,1.02001
3.5,-0.64803,1.07536,0.980621,0.0204814,1.91385,1.01803
3.51,-0.635855,1.06656,0.98704,0.019466,1.92488,1.01612
3.52,-0.623191,1.05806,0.993335,0.0185236,1.93561,1.01419
3.53,-0.610208,1.04977,0.999501,0.0176254,1.94629,1.01233
3.54,-0.596882,1.04186,1.00554,0.0167955,1.95654,1.01047
3.55,-0.583055,1.03415,1.01144,0.0159853,1.96665,1.00864
3.56,-0.569022,1.0268,1.0172,0.0152285,1.9764,1.00687
3.57,-0.5545,1.01961,1.02281,0.0144315,1.986,1.00511
3.58,-0.539721,1.01265,1.02828,0.0135451,1.99522,1.00337
3.59,-0.524623,1.00589,1.03361,0.0126406,2.00426,1.00168
3.6,-0.509221,0.99938,1.03877,0.0116923,2.01298,1.00003
3.61,-0.493467,0.993052,1.04379,0.0106469,2.0214,0.99839
3.62,-0.477433,0.986884,1.04864,0.00932643,2.02955,0.996862
3.63,-0.461249,0.981005,1.05334,0.00807501,2.03734,0.995359
3.64,-0.44459,0.97535,1.05786,0.00685274,2.04491,0.993912
3.65,-0.427893,0.970046,1.06223,0.00565051,2.05206,0.992556
3.66,-0.410823,0.96496,1.06642,0.00458786,2.05901,0.991219
3.67,-0.393638,0.959575,1.07044,0.00224531,2.06563,0.989988
