time,velocity,ratio,centerX,Xmax,Xmin,Ymax
0,0,1,13.5,12.5,14.5,1
0.01,0.019812,1,13.4999,12.4999,14.4999,1
0.02,0.039545,1.00001,13.4996,12.4996,14.4996,1
0.03,0.0592015,1.00001,13.4991,12.4991,14.4991,1
0.04,0.0787725,1.00002,13.4984,12.4984,14.4984,1
0.05,0.0982704,1.00002,13.4976,12.4976,14.4975,0.999999
0.06,0.117767,1.00003,13.4965,12.4965,14.4964,0.999998
0.07,0.137061,1.00004,13.4952,12.4952,14.4952,0.999997
0.08,0.156293,1.00006,13.4938,12.4938,14.4937,0.999995
0.09,0.175455,1.00008,13.4921,12.4922,14.492,0.999993
0.1,0.194723,1.00012,13.4903,12.4904,14.4902,1.00002
0.11,0.213769,1.00018,13.4882,12.4883,14.4881,1.00005
0.12,0.232728,1.00025,13.486,12.4862,14.4858,1.00008
0.13,0.251605,1.00032,13.4836,12.4838,14.4834,1.0001
0.14,0.270438,1.0004,13.481,12.4813,14.4807,1.00012
0.15,0.289155,1.00051,13.4782,12.4786,14.4779,1.00015
0.16,0.307791,1.00065,13.4752,12.4757,14.4748,1.0002
0.17,0.326344,1.00084,13.4721,12.4726,14.4715,1.00027
0.18,0.344802,1.00106,13.4687,12.4694,14.468,1.00034
0.19,0.363183,1.0013,13.4652,12.4661,14.4643,1.00042
0.2,0.381498,1.00156,13.4615,12.4625,14.4604,1.00049
0.21,0.399667,1.00192,13.4576,12.4588,14.4562,1.00061
0.22,0.417718,1.00232,13.4535,12.455,14.4518,1.00075
0.23,0.435671,1.00273,13.4492,12.451,14.4473,1.00088
0.24,0.453605,1.00319,13.4448,12.4468,14.4425,1.00101
0.25,0.471335,1.00375,13.4402,12.4425,14.4375,1.0012
0.26,0.489045,1.00433,13.4354,12.4381,14.4322,1.0014
0.27,0.506502,1.00499,13.4304,12.4335,14.4267,1.0016
0.28,0.523867,1.00576,13.4253,12.4287,14.421,1.00186
0.29,0.541073,1.00657,13.4199,12.4239,14.4151,1.00213
0.3,0.558126,1.00745,13.4145,12.4189,14.4089,1.0024
0.31,0.575074,1.00843,13.4088,12.4138,14.4025,1.00273
0.32,0.591822,1.00951,13.403,12.4085,14.3958,1.00307
0.33,0.60847,1.01068,13.397,12.4032,14.3888,1.00341
0.34,0.624863,1.01198,13.3908,12.3977,14.3817,1.00384
0.35,0.641046,1.01332,13.3845,12.3921,14.3742,1.00426
0.36,0.657086,1.01482,13.378,12.3864,14.3665,1.00471
0.37,0.672825,1.01646,13.3714,12.3806,14.3585,1.00522
0.38,0.688408,1.01811,13.3646,12.3746,14.3503,1.00571
0.39,0.703743,1.01994,13.3576,12.3686,14.3418,1.00629
0.4,0.719,1.02192,13.3505,12.3625,14.333,1.00687
0.41,0.733708,1.02402,13.3432,12.3562,14.324,1.00751
0.42,0.748389,1.02626,13.3358,12.3499,14.3146,1.00816
0.43,0.762768,1.02864,13.3283,12.3435,14.305,1.00885
0.44,0.776928,1.03117,13.3206,12.3369,14.2951,1.00959
0.45,0.790768,1.0338,13.3128,12.3303,14.2849,1.01033
0.46,0.804351,1.03662,13.3048,12.3236,14.2745,1.01115
0.47,0.81764,1.03955,13.2967,12.3168,14.2637,1.01195
0.48,0.830641,1.0427,13.2884,12.3099,14.2527,1.01285
0.49,0.843366,1.04595,13.2801,12.303,14.2413,1.01373
0.5,0.855734,1.04941,13.2716,12.2959,14.2297,1.01469
0.51,0.86786,1.05302,13.263,12.2888,14.2178,1.01565
0.52,0.879671,1.05671,13.2542,12.2816,14.2058,1.01667
0.53,0.891108,1.06064,13.2454,12.2743,14.1933,1.0177
0.54,0.902447,1.06474,13.2364,12.2669,14.1806,1.01879
0.55,0.913313,1.06902,13.2274,12.2595,14.1676,1.01989
0.56,0.923843,1.07343,13.2182,12.252,14.1544,1.02105
0.57,0.934001,1.07799,13.2089,12.2444,14.1409,1.02221
0.58,0.943884,1.08277,13.1995,12.2368,14.1272,1.02344
0.59,0.953456,1.08769,13.19,12.2291,14.1132,1.02466
0.6,0.962527,1.0928,13.1804,12.2214,14.0991,1.02597
0.61,0.97157,1.09802,13.1708,12.2136,14.0847,1.02725
0.62,0.980131,1.10343,13.161,12.2057,14.0702,1.02862
0.63,0.988413,1.10896,13.1512,12.1978,14.0554,1.02997
0.64,0.996357,1.11472,13.1413,12.1899,14.0404,1.0314
0.65,1.0041,1.12055,13.1313,12.1818,14.0252,1.03279
0.66,1.01154,1.12659,13.1212,12.1738,14.0099,1.03427
0.67,1.01867,1.13268,13.111,12.1657,13.9945,1.03573
0.68,1.02558,1.13897,13.1008,12.1575,13.9788,1.03724
0.69,1.03211,1.14534,13.0905,12.1493,13.9632,1.03876
0.7,1.0384,1.15185,13.0802,12.141,13.9473,1.04031
0.71,1.04453,1.15849,13.0698,12.1327,13.9315,1.0419
0.72,1.05037,1.16516,13.0593,12.1243,13.9155,1.04348
0.73,1.05597,1.17206,13.0488,12.116,13.8994,1.04513
0.74,1.06144,1.17894,13.0382,12.1075,13.8833,1.04674
0.75,1.06661,1.18604,13.0276,12.0991,13.8671,1.04843
0.76,1.07155,1.19306,13.0169,12.0905,13.8509,1.0501
0.77,1.07615,1.20026,13.0061,12.082,13.8346,1.05182
0.78,1.08063,1.2075,12.9954,12.0734,13.8184,1.05355
0.79,1.0848,1.21477,12.9845,12.0648,13.8022,1.0553
0.8,1.08896,1.22216,12.9737,12.0561,13.786,1.0571
0.81,1.09295,1.2295,12.9628,12.0474,13.7698,1.05887
0.82,1.09674,1.23704,12.9518,12.0387,13.7536,1.06072
0.83,1.10052,1.24452,12.9408,12.0299,13.7374,1.06255
0.84,1.10413,1.25206,12.9298,12.0211,13.7214,1.06441
0.85,1.1075,1.25964,12.9188,12.0123,13.7053,1.06627
0.86,1.11074,1.26723,12.9077,12.0034,13.6893,1.06817
0.87,1.11401,1.27488,12.8966,11.9945,13.6733,1.07009
0.88,1.11701,1.28248,12.8854,11.9856,13.6574,1.072
0.89,1.1199,1.29019,12.8742,11.9767,13.6416,1.07399
0.9,1.12276,1.29781,12.863,11.9677,13.6258,1.07593
0.91,1.12553,1.3055,12.8518,11.9587,13.6101,1.07795
0.92,1.12812,1.31318,12.8405,11.9498,13.5945,1.07995
0.93,1.13062,1.32078,12.8292,11.9407,13.5791,1.08196
0.94,1.13307,1.32846,12.8179,11.9316,13.5636,1.08404
0.95,1.1354,1.33609,12.8066,11.9225,13.5483,1.08607
0.96,1.13768,1.34381,12.7952,11.9134,13.533,1.0882
0.97,1.1398,1.35147,12.7838,11.9042,13.5178,1.09031
0.98,1.14184,1.35907,12.7724,11.895,13.5027,1.09245
0.99,1.14404,1.36667,12.761,11.8858,13.4877,1.09461
1,1.14603,1.37423,12.7495,11.8766,13.4728,1.09674
1.01,1.14794,1.38182,12.7381,11.8674,13.458,1.09896
1.02,1.14977,1.38935,12.7266,11.8581,13.4433,1.10117
1.03,1.15159,1.39689,12.7151,11.8488,13.4286,1.1034
1.04,1.15335,1.40446,12.7036,11.8395,13.414,1.10568
1.05,1.15507,1.412,12.692,11.8302,13.3995,1.10792
1.06,1.15675,1.41954,12.6805,11.8208,13.385,1.11023
1.07,1.15835,1.427,12.6689,11.8114,13.3707,1.11252
1.08,1.15991,1.43442,12.6573,11.802,13.3564,1.11479
1.09,1.16154,1.44195,12.6457,11.7926,13.3422,1.11718
1.1,1.16302,1.44938,12.6341,11.7832,13.328,1.11954
1.11,1.1645,1.45676,12.6224,11.7737,13.314,1.12187
1.12,1.16592,1.46421,12.6108,11.7642,13.2999,1.12429
1.13,1.16735,1.47158,12.5991,11.7547,13.286,1.12668
1.14,1.16869,1.47882,12.5874,11.7452,13.2721,1.12903
1.15,1.17004,1.4861,12.5758,11.7356,13.2583,1.13146
1.16,1.17134,1.49335,12.5641,11.726,13.2446,1.13389
1.17,1.17264,1.50051,12.5523,11.7164,13.2309,1.13627
1.18,1.17378,1.50771,12.5406,11.7068,13.2173,1.13869
1.19,1.17495,1.51493,12.5289,11.6972,13.2037,1.14113
1.2,1.17617,1.52206,12.5171,11.6876,13.1902,1.14354
1.21,1.17735,1.52909,12.5053,11.6779,13.1767,1.14591
1.22,1.17844,1.5362,12.4936,11.6682,13.1633,1.14834
1.23,1.17948,1.54321,12.4818,11.6585,13.1499,1.15078
1.24,1.18051,1.55011,12.47,11.6488,13.1367,1.15318
1.25,1.18166,1.55695,12.4582,11.6391,13.1234,1.15553
1.26,1.18275,1.56382,12.4464,11.6293,13.1102,1.15787
1.27,1.18381,1.57074,12.4345,11.6196,13.0969,1.16027
1.28,1.18479,1.57757,12.4227,11.6098,13.0838,1.16262
1.29,1.18576,1.58427,12.4108,11.6,13.0707,1.16494
1.3,1.18673,1.59082,12.399,11.5902,13.0576,1.16721
1.31,1.1877,1.59735,12.3871,11.5804,13.0446,1.16948
1.32,1.18869,1.60391,12.3752,11.5705,13.0317,1.17178
1.33,1.18965,1.61034,12.3633,11.5606,13.0187,1.17402
1.34,1.19055,1.61675,12.3514,11.5508,13.0058,1.17622
1.35,1.19146,1.62312,12.3395,11.5409,12.9929,1.17841
1.36,1.19238,1.62939,12.3276,11.531,12.9801,1.18056
1.37,1.19331,1.63556,12.3157,11.5211,12.9673,1.18266
1.38,1.19425,1.64174,12.3038,11.5111,12.9545,1.18479
1.39,1.19529,1.64787,12.2918,11.5012,12.9417,1.18688
1.4,1.19617,1.65397,12.2799,11.4912,12.9289,1.18892
1.41,1.19712,1.66008,12.2679,11.4813,12.9161,1.19094
1.42,1.19799,1.66605,12.2559,11.4714,12.9034,1.19292
1.43,1.19893,1.67186,12.2439,11.4614,12.8908,1.19486
1.44,1.19985,1.67759,12.2319,11.4514,12.8782,1.19676
1.45,1.20082,1.68328,12.2199,11.4414,12.8655,1.19862
1.46,1.20174,1.68902,12.2079,11.4313,12.8529,1.2005
1.47,1.20265,1.6947,12.1959,11.4213,12.8403,1.20235
1.48,1.20353,1.70032,12.1839,11.4113,12.8277,1.20414
1.49,1.20456,1.70583,12.1718,11.4013,12.8151,1.2059
1.5,1.20549,1.71128,12.1598,11.3912,12.8026,1.20762
1.51,1.20644,1.71668,12.1477,11.3812,12.7901,1.20932
1.52,1.20739,1.72196,12.1357,11.3711,12.7776,1.21097
1.53,1.20836,1.72727,12.1236,11.3611,12.7651,1.21259
1.54,1.20939,1.73257,12.1115,11.351,12.7526,1.21416
1.55,1.21036,1.73785,12.0994,11.341,12.7401,1.21569
1.56,1.21136,1.74311,12.0873,11.331,12.7276,1.21723
1.57,1.21237,1.7483,12.0752,11.321,12.7152,1.21877
1.58,1.21345,1.75327,12.0631,11.3109,12.7028,1.22019
1.59,1.21446,1.75832,12.0509,11.3008,12.6904,1.22162
1.6,1.21554,1.76342,12.0388,11.2908,12.6779,1.22301
1.61,1.21678,1.76851,12.0266,11.2808,12.6655,1.22438
1.62,1.21808,1.77357,12.0144,11.2708,12.653,1.22572
1.63,1.21916,1.77858,12.0023,11.2609,12.6406,1.22701
1.64,1.22019,1.78353,11.9901,11.2509,12.6282,1.22827
1.65,1.22131,1.78841,11.9779,11.2409,12.6158,1.22949
1.66,1.22249,1.79327,11.9656,11.2309,12.6034,1.23068
1.67,1.22365,1.7982,11.9534,11.221,12.5911,1.23186
1.68,1.22479,1.80319,11.9412,11.2111,12.5787,1.23303
1.69,1.22596,1.80825,11.9289,11.2012,12.5662,1.23417
1.7,1.2272,1.81332,11.9167,11.1913,12.5538,1.23527
1.71,1.22854,1.81833,11.9044,11.1815,12.5413,1.23634
1.72,1.22978,1.82333,11.8921,11.1716,12.5289,1.23739
1.73,1.23105,1.82831,11.8798,11.1617,12.5164,1.23841
1.74,1.23244,1.83329,11.8675,11.1519,12.504,1.23939
1.75,1.23378,1.8383,11.8551,11.1421,12.4915,1.24035
1.76,1.23519,1.8433,11.8428,11.1323,12.4791,1.24128
1.77,1.23659,1.8483,11.8304,11.1225,12.4666,1.24219
1.78,1.23817,1.8533,11.8181,11.1127,12.4542,1.24309
1.79,1.2395,1.85838,11.8057,11.1029,12.4417,1.24399
1.8,1.24088,1.86349,11.7933,11.0931,12.4292,1.24487
1.81,1.2423,1.86864,11.7809,11.0834,12.4167,1.24573
1.82,1.24373,1.87378,11.7684,11.0736,12.4041,1.24656
1.83,1.24532,1.87888,11.756,11.0638,12.3915,1.24735
1.84,1.24675,1.88392,11.7435,11.054,12.379,1.2481
1.85,1.24822,1.88893,11.7311,11.0442,12.3664,1.24883
1.86,1.24974,1.89389,11.7186,11.0344,12.3539,1.24954
1.87,1.25123,1.89885,11.7061,11.0246,12.3414,1.25024
1.88,1.25291,1.90371,11.6936,11.0147,12.3288,1.25086
1.89,1.25454,1.90868,11.681,11.0049,12.3163,1.25153
1.9,1.25614,1.91358,11.6685,10.9949,12.3037,1.25221
1.91,1.25776,1.91847,11.6559,10.985,12.2911,1.25287
1.92,1.25932,1.92337,11.6433,10.975,12.2785,1.25351
1.93,1.26105,1.92831,11.6307,10.965,12.2658,1.25413
1.94,1.26285,1.93322,11.6181,10.955,12.2531,1.25473
1.95,1.26453,1.93807,11.6055,10.9449,12.2404,1.2553
1.96,1.26591,1.94281,11.5928,10.9348,12.2276,1.25585
1.97,1.26769,1.94747,11.5802,10.9246,12.2149,1.25637
1.98,1.26946,1.95209,11.5675,10.9144,12.2021,1.25686
1.99,1.2712,1.9567,11.5548,10.9042,12.1893,1.25736
2,1.27306,1.96126,11.542,10.8938,12.1766,1.25787
2.01,1.27515,1.96573,11.5293,10.8834,12.1638,1.25838
2.02,1.27672,1.97004,11.5166,10.873,12.151,1.25885
2.03,1.27888,1.97428,11.5038,10.8624,12.1381,1.25932
2.04,1.28079,1.97848,11.491,10.8518,12.1253,1.25976
2.05,1.28268,1.98254,11.4782,10.8412,12.1124,1.26017
2.06,1.28459,1.98648,11.4653,10.8304,12.0996,1.26055
2.07,1.2866,1.99034,11.4525,10.8196,12.0866,1.26091
2.08,1.28863,1.99417,11.4396,10.8087,12.0737,1.26129
2.09,1.29072,1.99795,11.4267,10.7977,12.0607,1.26168
2.1,1.2928,2.00158,11.4138,10.7867,12.0477,1.26203
2.11,1.29487,2.0051,11.4009,10.7755,12.0347,1.26236
2.12,1.29696,2.00853,11.3879,10.7643,12.0216,1.26267
2.13,1.29934,2.01187,11.3749,10.753,12.0085,1.26296
2.14,1.30153,2.01509,11.3619,10.7416,11.9954,1.26323
2.15,1.30365,2.01818,11.3489,10.7302,11.9823,1.26348
2.16,1.30586,2.02111,11.3358,10.7187,11.9692,1.26373
2.17,1.3081,2.02398,11.3228,10.7071,11.9561,1.26403
2.18,1.31045,2.02674,11.3097,10.6954,11.943,1.2643
2.19,1.31275,2.02929,11.2966,10.6836,11.9299,1.26454
2.2,1.31507,2.03169,11.2834,10.6717,11.9167,1.26476
2.21,1.31749,2.03396,11.2703,10.6597,11.9036,1.26495
2.22,1.31996,2.03611,11.2571,10.6477,11.8904,1.26512
2.23,1.32242,2.03813,11.2439,10.6356,11.8772,1.26527
2.24,1.32485,2.04,11.2306,10.6234,11.864,1.26539
2.25,1.32737,2.042,11.2174,10.6111,11.8507,1.26565
2.26,1.32986,2.04376,11.2041,10.5988,11.8375,1.2658
2.27,1.33252,2.04542,11.1908,10.5863,11.8242,1.26594
2.28,1.33511,2.047,11.1775,10.5739,11.8109,1.26608
2.29,1.33774,2.04846,11.1641,10.5613,11.7975,1.26619
2.3,1.3405,2.04978,11.1507,10.5486,11.7842,1.26628
2.31,1.34321,2.05099,11.1373,10.5359,11.7708,1.26636
2.32,1.34583,2.05212,11.1238,10.5231,11.7573,1.26642
2.33,1.34833,2.0532,11.1104,10.5102,11.7439,1.26649
2.34,1.35101,2.05423,11.0969,10.4973,11.7304,1.26662
2.35,1.35376,2.05517,11.0834,10.4842,11.717,1.26674
2.36,1.35697,2.05599,11.0698,10.4712,11.7035,1.26685
2.37,1.35981,2.0567,11.0562,10.458,11.69,1.26693
2.38,1.36268,2.05734,11.0426,10.4448,11.6765,1.26699
2.39,1.36553,2.05783,11.029,10.4315,11.663,1.26704
2.4,1.36838,2.05825,11.0153,10.4182,11.6494,1.26708
2.41,1.37125,2.05863,11.0016,10.4048,11.6358,1.26711
2.42,1.37422,2.05902,10.9879,10.3913,11.6222,1.26718
2.43,1.37707,2.05942,10.9741,10.3778,11.6086,1.26729
2.44,1.3799,2.05975,10.9604,10.3643,11.5949,1.26739
2.45,1.38279,2.06002,10.9465,10.3507,11.5812,1.26748
2.46,1.38566,2.06028,10.9327,10.337,11.5675,1.26756
2.47,1.38856,2.0605,10.9188,10.3233,11.5537,1.26763
2.48,1.3914,2.06066,10.9049,10.3096,11.54,1.26769
2.49,1.39417,2.06078,10.891,10.2958,11.5261,1.26774
2.5,1.39695,2.06089,10.8771,10.2819,11.5123,1.2678
2.51,1.39973,2.06104,10.8631,10.2681,11.4984,1.26788
2.52,1.40245,2.06126,10.8491,10.2541,11.4845,1.26803
2.53,1.40533,2.06142,10.835,10.2401,11.4705,1.26818
2.54,1.40801,2.06159,10.821,10.2261,11.4565,1.26832
2.55,1.41082,2.06172,10.8069,10.212,11.4425,1.26846
2.56,1.41345,2.06186,10.7928,10.1979,11.4285,1.26859
2.57,1.41606,2.06202,10.7786,10.1838,11.4144,1.26872
2.58,1.41864,2.06214,10.7644,10.1696,11.4002,1.26884
2.59,1.42117,2.06227,10.7502,10.1554,11.3861,1.26897
2.6,1.42378,2.06246,10.736,10.1412,11.3718,1.2691
2.61,1.42621,2.06271,10.7218,10.1269,11.3576,1.26926
2.62,1.42877,2.06305,10.7075,10.1126,11.3433,1.26948
2.63,1.43119,2.06345,10.6932,10.0982,11.3289,1.2697
2.64,1.43362,2.06392,10.6789,10.0839,11.3145,1.26992
2.65,1.4359,2.06447,10.6645,10.0695,11.3,1.27015
2.66,1.43815,2.06504,10.6502,10.0551,11.2854,1.27037
2.67,1.44042,2.06568,10.6358,10.0406,11.2708,1.27059
2.68,1.44251,2.06638,10.6214,10.0262,11.2562,1.27081
2.69,1.44455,2.06718,10.6069,10.0117,11.2415,1.27104
2.7,1.44671,2.06802,10.5925,9.99721,11.2267,1.27127
2.71,1.44882,2.06895,10.578,9.9827,11.2118,1.2715
2.72,1.45089,2.07006,10.5635,9.96817,11.1969,1.27179
2.73,1.45291,2.07134,10.549,9.95364,11.1819,1.27212
2.74,1.45484,2.07267,10.5344,9.93908,11.1669,1.27245
2.75,1.45698,2.07406,10.5199,9.9245,11.1518,1.27279
2.76,1.4588,2.07557,10.5053,9.90991,11.1367,1.27313
2.77,1.46054,2.07719,10.4907,9.89531,11.1215,1.27347
2.78,1.46221,2.0789,10.4761,9.8807,11.1062,1.27382
2.79,1.46401,2.08065,10.4615,9.86608,11.0909,1.27416
2.8,1.46562,2.08248,10.4468,9.85144,11.0755,1.27451
2.81,1.46707,2.08444,10.4322,9.83681,11.06,1.27487
2.82,1.46851,2.0865,10.4175,9.82218,11.0445,1.27522
2.83,1.46996,2.08863,10.4028,9.80754,11.029,1.27558
2.84,1.47135,2.09092,10.3881,9.79289,11.0134,1.276
2.85,1.47265,2.09333,10.3734,9.77823,10.9978,1.27644
2.86,1.4739,2.09585,10.3586,9.76358,10.9821,1.27689
2.87,1.47509,2.09841,10.3439,9.74892,10.9664,1.27734
2.88,1.47621,2.10104,10.3292,9.73426,10.9506,1.27779
2.89,1.47739,2.10373,10.3144,9.71959,10.9348,1.27825
2.9,1.47848,2.10651,10.2996,9.70494,10.919,1.27871
2.91,1.47945,2.10933,10.2848,9.69027,10.9031,1.27918
2.92,1.48036,2.11219,10.27,9.67561,10.8873,1.27964
2.93,1.48124,2.11507,10.2552,9.66093,10.8714,1.2801
2.94,1.48208,2.118,10.2404,9.64626,10.8555,1.28056
2.95,1.48287,2.12099,10.2256,9.63159,10.8395,1.28103
2.96,1.48364,2.12409,10.2107,9.61692,10.8236,1.28154
2.97,1.48441,2.12724,10.1959,9.60226,10.8076,1.28207
2.98,1.48512,2.13047,10.1811,9.58761,10.7917,1.28259
2.99,1.48571,2.13376,10.1662,9.57296,10.7757,1.28313
3,1.48631,2.13706,10.1514,9.55832,10.7597,1.28367
3.01,1.48682,2.1404,10.1365,9.54368,10.7437,1.28422
3.02,1.48735,2.14381,10.1216,9.52904,10.7276,1.28477
3.03,1.48781,2.14727,10.1067,9.51442,10.7116,1.28533
3.04,1.48822,2.15073,10.0919,9.49979,10.6956,1.28589
3.05,1.48865,2.15423,10.077,9.48518,10.6795,1.28646
3.06,1.48902,2.15774,10.0621,9.47057,10.6635,1.28703
3.07,1.48944,2.1613,10.0472,9.45597,10.6475,1.2876
3.08,1.48989,2.16483,10.0323,9.44137,10.6315,1.28818
3.09,1.49015,2.16837,10.0174,9.42678,10.6155,1.28876
3.1,1.4904,2.172,10.0025,9.41219,10.5995,1.2894
3.11,1.4906,2.17566,9.98761,9.39761,10.5835,1.29004
3.12,1.49077,2.17932,9.97271,9.38305,10.5675,1.29069
3.13,1.49089,2.18295,9.9578,9.36848,10.5516,1.29133
3.14,1.49104,2.18658,9.94289,9.35392,10.5357,1.29198
3.15,1.49103,2.19021,9.92798,9.33938,10.5197,1.29262
3.16,1.49106,2.1938,9.91308,9.32485,10.5039,1.29326
3.17,1.49106,2.19735,9.89817,9.31032,10.488,1.29391
3.18,1.49099,2.20088,9.88326,9.2958,10.4722,1.29455
3.19,1.49097,2.20439,9.86835,9.28128,10.4564,1.29518
3.2,1.49092,2.20784,9.85344,9.26677,10.4406,1.29582
3.21,1.49089,2.21126,9.83854,9.25227,10.4249,1.29645
3.22,1.49075,2.21469,9.82363,9.23777,10.4091,1.29712
3.23,1.49061,2.21798,9.80872,9.22328,10.3935,1.29772
3.24,1.49046,2.22126,9.79382,9.20879,10.3778,1.29836
3.25,1.49034,2.22453,9.77892,9.19431,10.3622,1.29901
3.26,1.49019,2.22777,9.76402,9.17984,10.3467,1.2997
3.27,1.49002,2.23096,9.74912,9.16537,10.3311,1.30038
3.28,1.48991,2.23408,9.73422,9.15091,10.3157,1.30107
3.29,1.48975,2.23718,9.71932,9.13645,10.3002,1.30176
3.3,1.48955,2.24022,9.70443,9.12198,10.2848,1.30245
3.31,1.48931,2.24325,9.68954,9.10753,10.2694,1.30314
3.32,1.48904,2.24623,9.67465,9.09308,10.254,1.30383
3.33,1.48868,2.24918,9.65976,9.07864,10.2386,1.30453
3.34,1.48837,2.25208,9.64488,9.06419,10.2233,1.30522
3.35,1.48806,2.25496,9.63,9.04975,10.208,1.30591
3.36,1.48778,2.25779,9.61512,9.03532,10.1927,1.30658
3.37,1.48749,2.26061,9.60024,9.0209,10.1775,1.30725
3.38,1.48721,2.26341,9.58537,9.0065,10.1622,1.30791
3.39,1.48686,2.26622,9.5705,8.9921,10.147,1.30858
3.4,1.4866,2.269,9.55564,8.97772,10.1317,1.30923
3.41,1.48625,2.27175,9.54078,8.96336,10.1165,1.30987
3.42,1.48586,2.27446,9.52592,8.949,10.1014,1.31051
3.43,1.4856,2.27714,9.51106,8.93464,10.0862,1.31115
3.44,1.48525,2.27975,9.49621,8.92029,10.0711,1.31177
3.45,1.48498,2.28231,9.48136,8.90595,10.056,1.3124
3.46,1.48483,2.28481,9.46651,8.89161,10.041,1.31303
3.47,1.48463,2.2873,9.45167,8.87727,10.0259,1.31367
3.48,1.48427,2.28971,9.43683,8.86294,10.0109,1.31429
3.49,1.48389,2.2921,9.42199,8.84862,9.99597,1.31492
3.5,1.48354,2.29441,9.40715,8.8343,9.98103,1.31553
3.51,1.48325,2.29666,9.39232,8.81999,9.96613,1.31615
3.52,1.48292,2.29883,9.37749,8.80567,9.95125,1.31674
3.53,1.48268,2.30092,9.36266,8.79135,9.9364,1.31733
3.54,1.48236,2.30291,9.34784,8.77703,9.92159,1.3179
3.55,1.48213,2.30486,9.33302,8.76272,9.9068,1.31847
3.56,1.48184,2.30672,9.3182,8.7484,9.89205,1.31903
3.57,1.48151,2.30855,9.30339,8.7341,9.8773,1.31957
3.58,1.48121,2.31032,9.28857,8.7198,9.86259,1.3201
3.59,1.48094,2.31205,9.27377,8.70552,9.84791,1.32063
3.6,1.48069,2.31371,9.25896,8.69123,9.83324,1.32113
3.61,1.48056,2.31534,9.24415,8.67695,9.81858,1.32163
3.62,1.48033,2.31693,9.22935,8.66267,9.80393,1.32211
3.63,1.48023,2.31851,9.21455,8.64839,9.78929,1.32259
3.64,1.48005,2.32007,9.19975,8.63412,9.77465,1.32305
3.65,1.47975,2.32156,9.18495,8.61985,9.76003,1.3235
3.66,1.47952,2.32297,9.17016,8.60558,9.74544,1.32393
3.67,1.47927,2.32435,9.15537,8.59133,9.73088,1.32436
3.68,1.47902,2.32569,9.14058,8.57707,9.71632,1.32477
3.69,1.47885,2.32695,9.12579,8.5628,9.70177,1.32516
3.7,1.47852,2.32815,9.111,8.54853,9.68722,1.32552
3.71,1.47852,2.3293,9.09622,8.53425,9.67269,1.32588
3.72,1.4784,2.33042,9.08144,8.51998,9.65816,1.32622
3.73,1.47834,2.3315,9.06665,8.50571,9.64364,1.32655
3.74,1.47816,2.33244,9.05187,8.49143,9.62917,1.32685
3.75,1.47813,2.33336,9.03709,8.47718,9.61472,1.32715
3.76,1.47803,2.33431,9.02232,8.46295,9.60027,1.32742
3.77,1.4782,2.33523,9.00754,8.44873,9.58583,1.32769
3.78,1.47823,2.33608,8.99276,8.43451,9.57141,1.32794
3.79,1.47826,2.33692,8.97798,8.4203,9.55703,1.32822
3.8,1.47843,2.33768,8.96319,8.4061,9.54265,1.32844
