time,velocity,ratio,centerX,Xmax,Xmin,Ymax
0,0,1,4.75,3.75,5.75,1
0.01,0.0201016,0.999983,4.7499,3.74988,5.74992,1
0.02,0.0402129,1.00001,4.7496,3.7496,5.74959,1
0.03,0.0602366,1.00007,4.7491,3.74914,5.74904,1.00002
0.04,0.0801396,1.00011,4.7484,3.74847,5.74831,1.00003
0.05,0.0999416,1.00013,4.7475,3.74757,5.7474,1.00005
0.06,0.119659,1.00019,4.7464,3.74651,5.74625,1.00006
0.07,0.139273,1.00023,4.74511,3.74526,5.74492,1.00006
0.08,0.158827,1.00026,4.74362,3.7438,5.74341,1.00006
0.09,0.178406,1.00028,4.74193,3.74215,5.74169,1.00006
0.1,0.198227,1.00032,4.74005,3.7403,5.73979,1.00007
0.11,0.218456,1.00029,4.73797,3.7382,5.7378,1.00009
0.12,0.238901,1.00023,4.73568,3.73585,5.73564,1.00013
0.13,0.258852,1.00025,4.73319,3.73337,5.73316,1.00015
0.14,0.278203,1.00031,4.73051,3.73071,5.73038,1.00015
0.15,0.297366,1.00042,4.72763,3.72792,5.72723,1.00007
0.16,0.316531,1.00047,4.72456,3.72495,5.72414,1.00006
0.17,0.336145,1.00045,4.7213,3.72169,5.72095,1.00008
0.18,0.355745,1.00038,4.71784,3.71812,5.71767,1.00015
0.19,0.375214,1.0003,4.71419,3.71427,5.71413,1.00023
0.2,0.39466,1.00046,4.71034,3.71048,5.70994,1.00019
0.21,0.413707,1.00057,4.7063,3.70661,5.7058,1.00017
0.22,0.43258,1.00069,4.70207,3.70268,5.70158,1.00013
0.23,0.451143,1.0008,4.69765,3.69841,5.69715,1.00017
0.24,0.470025,1.0008,4.69304,3.69357,5.69244,1.00023
0.25,0.488865,1.00074,4.68825,3.68862,5.68772,1.00029
0.26,0.507429,1.00066,4.68327,3.6836,5.68296,1.00034
0.27,0.52672,1.00096,4.6781,3.67879,5.6775,1.00032
0.28,0.545354,1.00112,4.67274,3.67355,5.67189,1.00029
0.29,0.563453,1.00104,4.6672,3.66792,5.66636,1.00026
0.3,0.581873,1.00114,4.66147,3.66219,5.66049,1.00029
0.31,0.600119,1.00116,4.65556,3.65635,5.65479,1.00038
0.32,0.618043,1.00098,4.64947,3.65015,5.64906,1.00043
0.33,0.636368,1.00107,4.6432,3.64393,5.6426,1.00041
0.34,0.654507,1.00124,4.63675,3.63753,5.63585,1.0004
0.35,0.672416,1.00134,4.63011,3.63101,5.62909,1.00038
0.36,0.690309,1.00142,4.6233,3.62439,5.62227,1.00036
0.37,0.707682,1.0013,4.61631,3.61729,5.61551,1.00041
0.38,0.725275,1.00146,4.60915,3.61008,5.60817,1.0005
0.39,0.742323,1.00136,4.60181,3.60258,5.60093,1.00053
0.4,0.759744,1.00141,4.5943,3.59501,5.59329,1.00055
0.41,0.776658,1.0016,4.58662,3.58784,5.58556,1.00046
0.42,0.794177,1.00177,4.57876,3.58003,5.57758,1.00054
0.43,0.810966,1.00189,4.57074,3.57219,5.56944,1.00051
0.44,0.82812,1.00186,4.56255,3.56377,5.56129,1.00062
0.45,0.845046,1.00182,4.55418,3.55534,5.55305,1.00067
0.46,0.862056,1.00206,4.54564,3.54698,5.54433,1.00074
0.47,0.878597,1.00205,4.53694,3.53835,5.53571,1.00073
0.48,0.895521,1.0023,4.52807,3.52957,5.52635,1.00068
0.49,0.912073,1.00234,4.51903,3.52056,5.51731,1.00071
0.5,0.928531,1.00241,4.50983,3.51146,5.50815,1.00075
0.51,0.94513,1.00246,4.50046,3.50221,5.49891,1.0008
0.52,0.961422,1.00233,4.49093,3.49252,5.48956,1.00085
0.53,0.9778,1.00258,4.48123,3.48287,5.4795,1.00089
0.54,0.994038,1.00263,4.47138,3.47314,5.46963,1.00087
0.55,1.01019,1.00272,4.46136,3.46318,5.45941,1.00082
0.56,1.02662,1.0028,4.45117,3.45325,5.44936,1.00085
0.57,1.04286,1.00286,4.44083,3.44281,5.43898,1.00094
0.58,1.05879,1.00293,4.43032,3.43226,5.42833,1.00096
0.59,1.07497,1.00288,4.41965,3.42143,5.41776,1.00104
0.6,1.09093,1.00299,4.40882,3.41074,5.40688,1.00106
0.61,1.1067,1.00329,4.39783,3.40011,5.39558,1.00101
0.62,1.12245,1.00337,4.38669,3.38906,5.38448,1.00107
0.63,1.13823,1.00344,4.37538,3.37771,5.37304,1.0011
0.64,1.15386,1.00356,4.36393,3.36636,5.36159,1.00117
0.65,1.1693,1.00359,4.35231,3.3547,5.34999,1.00123
0.66,1.18488,1.0037,4.34054,3.34301,5.33821,1.00129
0.67,1.20021,1.00379,4.32861,3.33113,5.32614,1.00129
0.68,1.21577,1.00405,4.31654,3.31926,5.31371,1.00126
0.69,1.23096,1.00408,4.3043,3.30705,5.30148,1.00128
0.7,1.24622,1.00408,4.29192,3.2947,5.28925,1.00135
0.71,1.26148,1.00418,4.27938,3.28229,5.27673,1.00139
0.72,1.27667,1.00424,4.26669,3.26952,5.26398,1.00146
0.73,1.29178,1.00428,4.25385,3.25664,5.25106,1.00148
0.74,1.30683,1.00439,4.24085,3.24376,5.2379,1.00144
0.75,1.32187,1.00459,4.22771,3.23091,5.22466,1.00145
0.76,1.33691,1.00469,4.21442,3.21766,5.2113,1.0015
0.77,1.35181,1.00474,4.20097,3.20425,5.19796,1.00158
0.78,1.36683,1.00477,4.18738,3.19051,5.18424,1.00161
0.79,1.38144,1.00487,4.17364,3.17681,5.17045,1.00168
0.8,1.39617,1.00503,4.15975,3.16308,5.15648,1.00171
0.81,1.41091,1.00526,4.14572,3.14937,5.14227,1.0017
0.82,1.42554,1.00537,4.13154,3.13521,5.12795,1.00172
0.83,1.4401,1.00547,4.11721,3.12092,5.11357,1.00177
0.84,1.45453,1.00554,4.10274,3.10652,5.09916,1.00184
0.85,1.46964,1.00559,4.08812,3.09189,5.08455,1.0019
0.86,1.48412,1.00572,4.07335,3.07721,5.06969,1.00194
0.87,1.49801,1.00584,4.05844,3.06232,5.05462,1.00197
0.88,1.51207,1.00602,4.04339,3.04744,5.03938,1.00197
0.89,1.52632,1.00609,4.0282,3.03231,5.02416,1.00199
0.9,1.54045,1.00619,4.01286,3.0171,5.00888,1.00205
0.91,1.55464,1.00628,3.99739,3.00165,4.99335,1.00211
0.92,1.56914,1.00631,3.98177,2.986,4.97774,1.00215
0.93,1.58327,1.00638,3.96601,2.97023,4.96185,1.00217
0.94,1.59711,1.00654,3.95011,2.95452,4.94585,1.00217
0.95,1.61097,1.00671,3.93407,2.93866,4.92967,1.00219
0.96,1.62474,1.00681,3.91789,2.92258,4.91346,1.00222
0.97,1.63853,1.00687,3.90157,2.90619,4.8971,1.00229
0.98,1.65209,1.00696,3.88512,2.88976,4.8806,1.00235
0.99,1.66563,1.00711,3.86853,2.87331,4.86395,1.0024
1,1.6791,1.0072,3.85181,2.85665,4.84717,1.00242
1.01,1.69301,1.00739,3.83495,2.83996,4.83014,1.00244
1.02,1.70665,1.00756,3.81795,2.82306,4.81301,1.00249
1.03,1.72003,1.00768,3.80082,2.806,4.79581,1.00255
1.04,1.73341,1.00775,3.78355,2.78877,4.77857,1.00261
1.05,1.74669,1.00789,3.76615,2.77149,4.76112,1.00266
1.06,1.76008,1.00805,3.74862,2.75402,4.74339,1.00269
1.07,1.77317,1.00815,3.73095,2.73645,4.72565,1.00271
1.08,1.78614,1.00827,3.71316,2.71879,4.70775,1.00271
1.09,1.79922,1.00838,3.69523,2.70102,4.6898,1.00272
1.1,1.81073,1.00849,3.67718,2.68301,4.67174,1.00281
1.11,1.82296,1.00855,3.65901,2.66483,4.65357,1.00287
1.12,1.83587,1.00861,3.64071,2.64649,4.63521,1.00292
1.13,1.8487,1.00871,3.62229,2.62818,4.61674,1.00294
1.14,1.86127,1.00886,3.60374,2.60984,4.59812,1.00295
1.15,1.87357,1.00899,3.58507,2.59128,4.57935,1.00297
1.16,1.88608,1.00917,3.56627,2.57256,4.56037,1.00302
1.17,1.89858,1.00925,3.54735,2.55358,4.5414,1.0031
1.18,1.91098,1.00932,3.5283,2.53457,4.52233,1.00314
1.19,1.92327,1.00936,3.50913,2.51545,4.50316,1.00316
1.2,1.93577,1.00953,3.48984,2.49631,4.48379,1.0032
1.21,1.94792,1.00983,3.47042,2.47711,4.46409,1.00326
1.22,1.96001,1.00995,3.45088,2.45769,4.44449,1.00329
1.23,1.97211,1.00999,3.43122,2.43807,4.42484,1.00331
1.24,1.98413,1.01009,3.41144,2.41832,4.40506,1.00339
1.25,1.9961,1.0103,3.39154,2.39852,4.385,1.00347
1.26,2.008,1.0104,3.37152,2.37858,4.36491,1.00349
1.27,2.01974,1.01043,3.35138,2.35848,4.34472,1.00348
1.28,2.03151,1.01061,3.33112,2.33838,4.32437,1.00354
1.29,2.04314,1.01082,3.31075,2.31815,4.30384,1.00358
1.3,2.05462,1.01082,3.29026,2.2977,4.28341,1.0036
1.31,2.06623,1.01084,3.26966,2.27703,4.26284,1.00366
1.32,2.07791,1.01102,3.24894,2.2564,4.24196,1.00372
1.33,2.08914,1.01115,3.2281,2.23572,4.22104,1.00373
1.34,2.1004,1.01123,3.20716,2.21487,4.2001,1.00376
1.35,2.11153,1.01143,3.1861,2.19393,4.17885,1.0038
1.36,2.12251,1.01153,3.16493,2.17281,4.15757,1.00383
1.37,2.1338,1.01161,3.14365,2.15157,4.13635,1.00391
1.38,2.14491,1.01176,3.12226,2.13028,4.11486,1.00396
1.39,2.15607,1.01186,3.10076,2.10884,4.09327,1.00398
1.4,2.16834,1.01203,3.07913,2.0873,4.07154,1.00405
1.41,2.17917,1.01225,3.05739,2.06581,4.04962,1.00406
1.42,2.19016,1.01231,3.03555,2.04398,4.02777,1.00411
1.43,2.20114,1.01243,3.01359,2.02211,4.0058,1.00417
1.44,2.21192,1.01261,2.99153,2.00023,3.98362,1.00421
1.45,2.22272,1.01268,2.96936,1.97797,3.9614,1.00428
1.46,2.23336,1.01281,2.94708,1.95585,3.93901,1.00429
1.47,2.24426,1.01294,2.92469,1.93354,3.91657,1.00434
1.48,2.25479,1.01303,2.90219,1.91108,3.89396,1.00436
1.49,2.26539,1.01319,2.87959,1.88871,3.87134,1.00439
1.5,2.27553,1.01327,2.85689,1.86594,3.84855,1.00446
1.51,2.28569,1.01339,2.83408,1.84329,3.82573,1.00449
1.52,2.29593,1.0135,2.81118,1.8204,3.80276,1.00456
1.53,2.3061,1.01364,2.78817,1.79756,3.77963,1.00456
1.54,2.31621,1.01378,2.76506,1.77451,3.75645,1.00463
1.55,2.32589,1.01395,2.74185,1.75144,3.73307,1.00463
1.56,2.3357,1.01406,2.71854,1.72819,3.70977,1.00472
1.57,2.34528,1.01415,2.69513,1.70485,3.6863,1.00474
1.58,2.35495,1.01433,2.67163,1.68147,3.66275,1.00483
1.59,2.36466,1.01442,2.64804,1.6579,3.63902,1.00485
1.6,2.37413,1.01462,2.62434,1.63438,3.61524,1.0049
1.61,2.38347,1.0147,2.60056,1.61066,3.59139,1.00492
1.62,2.39288,1.01489,2.57667,1.58695,3.56742,1.00498
1.63,2.40218,1.01496,2.5527,1.56304,3.54345,1.00502
1.64,2.41137,1.01511,2.52863,1.53903,3.51926,1.00507
1.65,2.42054,1.01518,2.50447,1.5149,3.49507,1.00511
1.66,2.42948,1.01535,2.48022,1.49075,3.47067,1.00515
1.67,2.43838,1.01546,2.45589,1.46656,3.44632,1.00518
1.68,2.44698,1.01557,2.43146,1.44218,3.42175,1.0052
1.69,2.45551,1.01573,2.40695,1.41786,3.39724,1.00526
1.7,2.46399,1.01578,2.38235,1.39321,3.37255,1.00529
1.71,2.47237,1.01598,2.35767,1.36872,3.34783,1.00537
1.72,2.48066,1.016,2.33291,1.34393,3.32308,1.0054
1.73,2.48893,1.01628,2.30806,1.31932,3.29799,1.00544
1.74,2.49698,1.01632,2.28313,1.29441,3.27308,1.00548
1.75,2.50471,1.01655,2.25812,1.26956,3.24783,1.00551
1.76,2.51244,1.01664,2.23304,1.24456,3.2228,1.00558
1.77,2.51999,1.01678,2.20788,1.21947,3.19755,1.00563
1.78,2.52749,1.01697,2.18264,1.19443,3.17222,1.00568
1.79,2.53491,1.017,2.15733,1.16908,3.14692,1.00573
1.8,2.54204,1.01724,2.13194,1.14391,3.12132,1.00576
1.81,2.54903,1.01733,2.10649,1.11852,3.09585,1.0058
1.82,2.55592,1.01749,2.08096,1.09315,3.07026,1.00584
1.83,2.56252,1.01762,2.05537,1.06768,3.0446,1.00587
1.84,2.56903,1.01772,2.02972,1.04205,3.01891,1.00594
1.85,2.57525,1.01788,2.00399,1.01644,2.99308,1.00599
1.86,2.58132,1.01801,1.97821,0.990754,2.96717,1.00601
1.87,2.58659,1.01809,1.95237,0.965006,2.94137,1.00606
1.88,2.59159,1.01831,1.92648,0.939322,2.91534,1.00609
1.89,2.59679,1.01846,1.90054,0.91348,2.88927,1.00613
1.9,2.60187,1.0185,1.87455,0.887529,2.86337,1.00619
1.91,2.60663,1.01873,1.84851,0.861691,2.83718,1.00625
1.92,2.61102,1.01885,1.82242,0.835663,2.81098,1.00628
1.93,2.61503,1.01899,1.79629,0.809688,2.78485,1.00634
1.94,2.61871,1.01927,1.77012,0.783749,2.75848,1.00639
1.95,2.62183,1.01941,1.74392,0.757615,2.73213,1.00642
1.96,2.62466,1.01953,1.71768,0.73156,2.70598,1.00649
1.97,2.62707,1.01981,1.69143,0.705525,2.67957,1.00657
1.98,2.62897,1.01997,1.66515,0.679359,2.65314,1.0066
1.99,2.63036,1.0201,1.63885,0.653233,2.62691,1.00667
2,2.63121,1.02039,1.61254,0.627173,2.6004,1.00673
2.01,2.63133,1.02059,1.58623,0.601043,2.57395,1.00676
2.02,2.63092,1.02073,1.55992,0.574969,2.54774,1.00683
2.03,2.63,1.02103,1.53361,0.54894,2.52127,1.00691
2.04,2.62816,1.02127,1.50732,0.522815,2.49479,1.00696
2.05,2.62546,1.02143,1.48106,0.49678,2.46856,1.00702
2.06,2.62206,1.02173,1.45482,0.470842,2.44219,1.0071
2.07,2.61746,1.02205,1.42862,0.444939,2.4158,1.00715
2.08,2.61202,1.02232,1.40247,0.419182,2.38962,1.00721
2.09,2.60562,1.02265,1.37638,0.393448,2.36344,1.00731
2.1,2.59772,1.02304,1.35037,0.367808,2.33723,1.0074
2.11,2.58847,1.0234,1.32444,0.34239,2.31126,1.00748
2.12,2.57765,1.02385,1.29861,0.317072,2.28533,1.0076
2.13,2.56511,1.02441,1.27289,0.291926,2.2593,1.0077
2.14,2.5507,1.02494,1.24731,0.267038,2.23358,1.0078
2.15,2.53411,1.0256,1.22189,0.242434,2.20802,1.00795
2.16,2.51538,1.02633,1.19664,0.218025,2.18248,1.00808
2.17,2.49425,1.02708,1.17159,0.194012,2.15733,1.00824
2.18,2.47021,1.02806,1.14677,0.170388,2.13221,1.00843
2.19,2.44286,1.02919,1.1222,0.147304,2.10729,1.0086
2.2,2.41194,1.03045,1.09793,0.124843,2.0829,1.00884
2.21,2.37658,1.03214,1.07398,0.103093,2.05843,1.00909
2.22,2.33645,1.03408,1.05042,0.0822904,2.03453,1.00939
2.23,2.29016,1.03658,1.02728,0.0626778,2.01084,1.00972
2.24,2.23654,1.04003,1.00465,0.0450646,1.98757,1.01013
2.25,2.17427,1.04476,0.982591,0.0302275,1.96486,1.01061
2.26,2.10113,1.05148,0.96121,0.0190787,1.94252,1.01123
2.27,2.01391,1.06081,0.940629,0.0128944,1.92082,1.01197
2.28,1.90914,1.07162,0.921002,0.00928643,1.89967,1.01288
2.29,1.78227,1.08344,0.902528,0.00700561,1.87926,1.01424
2.3,1.62826,1.09578,0.885454,0.00481537,1.85953,1.01618
2.31,1.44582,1.10792,0.870061,0.00111794,1.84085,1.01913
2.32,1.23791,1.12193,0.856624,-0,1.82352,1.02293
2.33,1.01139,1.13721,0.845364,-0,1.80641,1.02713
2.34,0.773577,1.15102,0.836425,-0,1.79105,1.03076
2.35,0.526474,1.16375,0.829916,-0,1.77593,1.03337
2.36,0.277851,1.17354,0.825891,2.20159e-08,1.76413,1.03514
2.37,0.0278791,1.17851,0.824349,-0,1.75878,1.03637
2.38,-0.219203,1.17809,0.825306,-0,1.75995,1.0367
2.39,-0.459169,1.17186,0.828694,1.26467e-06,1.76805,1.03595
2.4,-0.696811,1.1618,0.834472,-0,1.78029,1.03417
2.41,-0.920916,1.14885,0.84257,-0,1.79455,1.03084
2.42,-1.12892,1.13485,0.852828,-0,1.80861,1.02625
2.43,-1.31563,1.1187,0.865064,-0,1.82655,1.02168
2.44,-1.4736,1.10233,0.879029,-0,1.84602,1.01747
2.45,-1.59832,1.0866,0.894409,-0,1.86668,1.01417
2.46,-1.6906,1.07067,0.910874,0.000148397,1.8893,1.01133
2.47,-1.75372,1.05552,0.92811,0.000337358,1.91138,1.00857
2.48,-1.79288,1.04124,0.945855,0.000798598,1.93343,1.00616
2.49,-1.81033,1.02797,0.963882,0.00128957,1.95476,1.00405
2.5,-1.80808,1.0156,0.981986,0.00123146,1.97538,1.00247
2.51,-1.78703,1.00415,0.999971,0.00106132,1.99536,1.00128
2.52,-1.75037,0.993443,1.01767,0.000991766,2.01482,1.00031
2.53,-1.70227,0.987944,1.03493,0.010084,2.0334,0.999463
2.54,-1.64729,0.988538,1.05168,0.0308545,2.05107,0.998528
2.55,-1.59231,0.990639,1.06787,0.0545061,2.06842,0.99753
2.56,-1.54553,0.993268,1.08355,0.0780023,2.08499,0.996738
2.57,-1.50935,0.995041,1.09882,0.0999888,2.10119,0.995638
2.58,-1.48137,0.997163,1.11376,0.120421,2.11729,0.995602
2.59,-1.45812,1.0016,1.12845,0.13953,2.13294,0.998295
2.6,-1.4377,1.00841,1.14293,0.157499,2.14486,1.00204
2.61,-1.41821,1.01263,1.15721,0.17442,2.16002,1.00534
2.62,-1.3998,1.01742,1.1713,0.190022,2.171,1.00774
2.63,-1.38433,1.02677,1.18522,0.204637,2.1707,1.00934
2.64,-1.37095,1.03505,1.19899,0.218642,2.17096,1.01037
2.65,-1.35682,1.03787,1.21263,0.231805,2.17879,1.01036
2.66,-1.34539,1.03665,1.22614,0.244041,2.19423,1.01083
2.67,-1.34087,1.03361,1.23956,0.258069,2.21447,1.01108
2.68,-1.3428,1.02613,1.25297,0.268734,2.23629,1.00949
2.69,-1.34815,1.01694,1.26643,0.278569,2.25738,1.00616
2.7,-1.35339,1.00999,1.27993,0.292893,2.27743,1.00219
2.71,-1.35511,1.00277,1.29348,0.303307,2.29593,0.999075
2.72,-1.34706,0.993144,1.307,0.305703,2.31287,0.996704
2.73,-1.32597,0.985209,1.32038,0.306754,2.32724,0.995301
2.74,-1.2954,0.981077,1.33349,0.312322,2.34134,0.995312
2.75,-1.26016,0.982189,1.34627,0.324982,2.3522,0.995554
2.76,-1.22249,0.98491,1.35868,0.343125,2.36415,0.995266
2.77,-1.18516,0.989303,1.37072,0.363602,2.3758,0.995338
2.78,-1.15027,0.996906,1.38239,0.383623,2.38322,0.996703
2.79,-1.11924,1.00431,1.39373,0.401676,2.3924,0.999652
2.8,-1.09337,1.00934,1.40479,0.418305,2.40533,1.0028
2.81,-1.07113,1.01372,1.41561,0.431574,2.41605,1.00586
2.82,-1.05068,1.02007,1.42622,0.444022,2.42099,1.00832
2.83,-1.03368,1.02558,1.43664,0.453916,2.4216,1.00901
2.84,-1.01783,1.02818,1.4469,0.46127,2.42329,1.00866
2.85,-1.00158,1.02886,1.457,0.470658,2.43019,1.00804
2.86,-0.987022,1.02633,1.46694,0.478908,2.44263,1.00771
2.87,-0.976186,1.0191,1.47675,0.483797,2.4594,1.00667
2.88,-0.968909,1.01074,1.48647,0.490027,2.47741,1.00437
2.89,-0.962187,1.00314,1.49613,0.499343,2.49624,1.00158
2.9,-0.953051,0.99717,1.5057,0.509384,2.51179,0.998368
2.91,-0.940223,0.990524,1.51517,0.515907,2.52574,0.995393
2.92,-0.922172,0.983887,1.52449,0.517961,2.53793,0.993708
2.93,-0.897514,0.980813,1.5336,0.519048,2.54527,0.993671
2.94,-0.868698,0.980484,1.54243,0.523073,2.5519,0.994618
2.95,-0.837446,0.982605,1.55097,0.533042,2.55916,0.995436
2.96,-0.80463,0.987499,1.55918,0.546475,2.56434,0.996318
2.97,-0.772789,0.995969,1.56706,0.562891,2.5665,0.997768
2.98,-0.742331,1.00425,1.57464,0.57907,2.56997,0.999682
2.99,-0.71579,1.01022,1.58192,0.592564,2.57678,1.00225
3,-0.694466,1.01508,1.58897,0.604836,2.58508,1.00505
3.01,-0.675572,1.01931,1.59582,0.614393,2.59123,1.0075
3.02,-0.658863,1.02176,1.60249,0.619438,2.59338,1.00845
3.03,-0.643136,1.02257,1.609,0.622832,2.59393,1.0078
3.04,-0.627398,1.02227,1.61536,0.6272,2.59644,1.00655
3.05,-0.611881,1.01941,1.62155,0.630266,2.60222,1.00511
3.06,-0.596561,1.01269,1.6276,0.630681,2.61285,1.00366
3.07,-0.582262,1.00412,1.63349,0.631165,2.62661,1.00183
3.08,-0.569744,0.997015,1.63925,0.634437,2.64011,0.999844
3.09,-0.555573,0.991136,1.64488,0.640306,2.65302,0.997436
3.1,-0.538197,0.986351,1.65035,0.646901,2.66409,0.99483
3.11,-0.517802,0.98271,1.65563,0.650456,2.67174,0.993169
3.12,-0.494932,0.981648,1.6607,0.651725,2.67502,0.99308
3.13,-0.469469,0.982213,1.66552,0.652737,2.67697,0.994115
3.14,-0.442197,0.98419,1.67008,0.655262,2.6788,0.995774
3.15,-0.415533,0.989421,1.67437,0.662406,2.6788,0.997531
3.16,-0.389355,0.997086,1.6784,0.672532,2.67714,0.99938
3.17,-0.363767,1.0053,1.68216,0.683569,2.67509,1.00104
3.18,-0.340476,1.01198,1.68568,0.694121,2.67568,1.00265
3.19,-0.320999,1.01666,1.68898,0.703592,2.68018,1.00476
3.2,-0.304347,1.01959,1.69211,0.710036,2.68467,1.00665
3.21,-0.289799,1.01991,1.69508,0.712149,2.68797,1.00758
3.22,-0.276693,1.01832,1.69791,0.711563,2.68943,1.00705
3.23,-0.264601,1.01638,1.70062,0.710589,2.68924,1.00553
3.24,-0.250984,1.01294,1.7032,0.709161,2.69064,1.00356
3.25,-0.234946,1.00707,1.70563,0.706982,2.69572,1.0014
3.26,-0.216467,0.999562,1.70789,0.703179,2.70317,0.999558
3.27,-0.199144,0.992893,1.70997,0.701066,2.71138,0.998011
3.28,-0.181286,0.987618,1.71187,0.70187,2.71971,0.996426
3.29,-0.161859,0.983586,1.71359,0.704584,2.72746,0.994838
3.3,-0.140161,0.982192,1.7151,0.708253,2.73158,0.993647
3.31,-0.116885,0.983112,1.71638,0.710712,2.73197,0.993562
3.32,-0.0923731,0.985241,1.71743,0.710517,2.72944,0.994565
3.33,-0.0672062,0.988421,1.71823,0.709894,2.72583,0.996295
3.34,-0.0418165,0.993224,1.71878,0.711211,2.72202,0.998593
3.35,-0.018997,1.00002,1.71908,0.715031,2.71658,1.00079
3.36,0.00271357,1.00714,1.71916,0.719958,2.71068,1.00247
