time,velocity,ratio,centerX,Xmax,Xmin,Ymax
0,0,1,1.5,0.5,2.5,1
0.01,0.0177934,1.00002,1.49991,0.499933,2.4999,1
0.02,0.0355202,1.00005,1.49965,0.499703,2.49964,1.00001
0.03,0.0531604,1.00013,1.49921,0.49936,2.49916,1.00003
0.04,0.0706971,1.00023,1.49859,0.498851,2.4985,1.00006
0.05,0.0879168,1.00037,1.4978,0.498201,2.49765,1.00009
0.06,0.105048,1.00052,1.49683,0.497383,2.49661,1.00013
0.07,0.121948,1.0007,1.4957,0.496416,2.49538,1.00018
0.08,0.138724,1.00088,1.4944,0.495261,2.49398,1.00024
0.09,0.155332,1.00108,1.49293,0.493955,2.49239,1.0003
0.1,0.172207,1.0013,1.49129,0.49247,2.49064,1.00038
0.11,0.188722,1.00154,1.48949,0.490834,2.48869,1.00047
0.12,0.204784,1.0018,1.48752,0.489051,2.48655,1.00055
0.13,0.221252,1.00201,1.48539,0.487063,2.48431,1.00063
0.14,0.237474,1.00221,1.4831,0.48487,2.4819,1.00072
0.15,0.253481,1.0024,1.48065,0.482506,2.47932,1.0008
0.16,0.26967,1.00265,1.47803,0.480008,2.47643,1.00086
0.17,0.285244,1.00288,1.47526,0.477348,2.47343,1.00092
0.18,0.30127,1.0031,1.47233,0.474558,2.47031,1.00097
0.19,0.316977,1.00327,1.46924,0.471541,2.46707,1.00103
0.2,0.332735,1.00339,1.46599,0.468435,2.46379,1.00106
0.21,0.348274,1.00346,1.46259,0.465095,2.46036,1.00109
0.22,0.36377,1.00363,1.45903,0.461696,2.45671,1.00113
0.23,0.379001,1.00378,1.45532,0.458117,2.45293,1.00118
0.24,0.394449,1.00389,1.45145,0.454334,2.44901,1.00121
0.25,0.410087,1.00391,1.44743,0.450407,2.44507,1.00123
0.26,0.425165,1.00395,1.44325,0.446255,2.44092,1.00127
0.27,0.440176,1.00401,1.43893,0.441977,2.43659,1.00131
0.28,0.455085,1.00408,1.43445,0.437613,2.43207,1.0013
0.29,0.469126,1.00412,1.42983,0.433105,2.42749,1.0013
0.3,0.483816,1.00424,1.42507,0.42844,2.42271,1.00136
0.31,0.498397,1.00436,1.42016,0.423605,2.41771,1.0014
0.32,0.512832,1.00445,1.41511,0.418676,2.41256,1.00138
0.33,0.527301,1.00462,1.40991,0.413615,2.40727,1.00143
0.34,0.541553,1.00482,1.40456,0.408421,2.40176,1.00147
0.35,0.555734,1.00495,1.39908,0.402997,2.39612,1.00149
0.36,0.569689,1.0051,1.39345,0.397401,2.39041,1.00158
0.37,0.583606,1.00533,1.38769,0.391756,2.38446,1.00166
0.38,0.597346,1.00565,1.38178,0.386121,2.3783,1.00172
0.39,0.610934,1.00592,1.37574,0.38024,2.37214,1.00185
0.4,0.624332,1.00618,1.36957,0.374223,2.3658,1.00194
0.41,0.637606,1.00654,1.36326,0.368208,2.3593,1.00206
0.42,0.650607,1.00687,1.35682,0.362004,2.3527,1.00219
0.43,0.663463,1.00727,1.35025,0.355741,2.34583,1.00228
0.44,0.676148,1.00771,1.34355,0.349412,2.3389,1.00242
0.45,0.688574,1.00814,1.33673,0.342896,2.3318,1.00254
0.46,0.700964,1.00862,1.32978,0.336363,2.32463,1.0027
0.47,0.712823,1.0091,1.32271,0.3297,2.31727,1.00283
0.48,0.724777,1.00959,1.31553,0.322872,2.30979,1.00299
0.49,0.736231,1.01009,1.30822,0.316058,2.30224,1.00311
0.5,0.747533,1.01056,1.30081,0.309017,2.29459,1.00328
0.51,0.7588,1.01097,1.29327,0.301828,2.2869,1.00342
0.52,0.76983,1.01156,1.28563,0.294618,2.27884,1.00358
0.53,0.780542,1.01199,1.27788,0.287236,2.2709,1.00372
0.54,0.791093,1.01253,1.27002,0.279793,2.26269,1.00387
0.55,0.801443,1.01295,1.26206,0.272193,2.25454,1.00401
0.56,0.811611,1.01345,1.254,0.264518,2.24619,1.00416
0.57,0.821379,1.01384,1.24583,0.256687,2.23782,1.00427
0.58,0.830838,1.01432,1.23757,0.248844,2.22928,1.0044
0.59,0.840167,1.01472,1.22922,0.240918,2.2208,1.00451
0.6,0.849322,1.01524,1.22077,0.232925,2.21203,1.00464
0.61,0.858133,1.01562,1.21223,0.224798,2.20338,1.00474
0.62,0.866766,1.01612,1.20361,0.216663,2.19454,1.00487
0.63,0.875014,1.01656,1.1949,0.208384,2.18561,1.00498
0.64,0.882927,1.01706,1.18611,0.200201,2.17668,1.00509
0.65,0.890561,1.01749,1.17725,0.191714,2.1676,1.00522
0.66,0.897834,1.01794,1.1683,0.18336,2.15857,1.00532
0.67,0.904745,1.01848,1.15929,0.174833,2.1493,1.00548
0.68,0.911282,1.01902,1.15021,0.16645,2.1401,1.00559
0.69,0.917353,1.01962,1.14107,0.157899,2.13068,1.00574
0.7,0.92299,1.02027,1.13187,0.149459,2.1213,1.0059
0.71,0.928162,1.02091,1.12261,0.140928,2.11178,1.00604
0.72,0.932658,1.02171,1.11331,0.132481,2.10216,1.00623
0.73,0.936747,1.02244,1.10396,0.123986,2.09253,1.00636
0.74,0.940233,1.02336,1.09458,0.115557,2.08276,1.00658
0.75,0.943109,1.02435,1.08516,0.107281,2.07298,1.00678
0.76,0.945383,1.02525,1.07572,0.0988386,2.06321,1.00698
0.77,0.946978,1.02648,1.06626,0.0907348,2.05325,1.00724
0.78,0.947866,1.02758,1.05678,0.0825723,2.04344,1.00747
0.79,0.948001,1.02901,1.0473,0.0747455,2.03342,1.00775
0.8,0.947251,1.03044,1.03783,0.0670367,2.02356,1.00804
0.81,0.945566,1.03201,1.02836,0.059584,2.01367,1.00832
0.82,0.942995,1.03393,1.01892,0.0524799,2.0036,1.00866
0.83,0.939341,1.03582,1.00951,0.0455392,1.99376,1.009
0.84,0.934508,1.03819,1.00014,0.039275,1.98369,1.00933
0.85,0.928342,1.04085,0.990829,0.0335611,1.97379,1.00974
0.86,0.920696,1.04382,0.981585,0.0284694,1.96393,1.01014
0.87,0.911577,1.04719,0.972424,0.0239657,1.95406,1.01059
0.88,0.900791,1.05099,0.963363,0.0202931,1.94435,1.01108
0.89,0.887991,1.05521,0.954419,0.0173089,1.93461,1.01158
0.9,0.87321,1.05995,0.945613,0.0151427,1.92493,1.01214
0.91,0.856194,1.06495,0.936965,0.013451,1.91539,1.01273
0.92,0.836909,1.07026,0.928499,0.0121418,1.90585,1.01338
0.93,0.815251,1.07577,0.920237,0.0110831,1.89656,1.01417
0.94,0.791138,1.08153,0.912203,0.0101847,1.88726,1.01506
0.95,0.764343,1.08742,0.904423,0.00938287,1.87807,1.01602
0.96,0.73465,1.09335,0.896925,0.00866703,1.86917,1.01709
0.97,0.702102,1.09935,0.889738,0.00795807,1.86036,1.01822
0.98,0.666985,1.10542,0.882891,0.00731015,1.85197,1.01956
0.99,0.628882,1.11162,0.876408,0.00667667,1.84362,1.02098
1,0.588401,1.11785,0.870318,0.00602468,1.83551,1.02254
1.01,0.54591,1.12424,0.864643,0.00540886,1.8273,1.02412
1.02,0.501243,1.13055,0.859405,0.00480176,1.81939,1.02574
1.03,0.455198,1.13643,0.854619,0.00420801,1.81212,1.02728
1.04,0.407695,1.14096,0.850301,0.00222758,1.80544,1.0287
1.05,0.358477,1.1456,0.846467,0.000789222,1.79893,1.02997
1.06,0.308755,1.15032,0.843128,0.000189979,1.79301,1.03115
1.07,0.258833,1.1547,0.840287,1.3536e-05,1.78777,1.03216
1.08,0.208713,1.1587,0.837947,-0,1.7831,1.03304
1.09,0.158455,1.16194,0.836109,-0,1.77923,1.03368
1.1,0.108264,1.1639,0.834772,4.04615e-08,1.77677,1.03399
1.11,0.0584478,1.165,0.833936,3.93337e-08,1.77535,1.03414
1.12,0.00916919,1.16504,0.833596,1.83264e-07,1.77523,1.03411
1.13,-0.0398254,1.16409,0.833747,1.49196e-07,1.77624,1.03385
1.14,-0.0880971,1.16214,0.834385,9.38157e-08,1.77833,1.03334
1.15,-0.135567,1.15991,0.835501,1.29061e-07,1.7805,1.03261
1.16,-0.182053,1.15674,0.837086,5.77137e-08,1.78379,1.03169
1.17,-0.227404,1.15235,0.839132,7.30463e-08,1.78877,1.03065
1.18,-0.271513,1.14773,0.841624,0.000327791,1.7942,1.02943
1.19,-0.314493,1.14246,0.844553,1.08476e-07,1.79974,1.02807
1.2,-0.355628,1.13722,0.847902,0.000237169,1.8057,1.02661
1.21,-0.394741,1.13134,0.851653,1.5432e-07,1.81208,1.02504
1.22,-0.431631,1.12569,0.855784,2.49458e-07,1.81854,1.02356
1.23,-0.466097,1.11979,0.860273,-0,1.82552,1.02209
1.24,-0.497625,1.11369,0.865091,-0,1.83272,1.02054
1.25,-0.526124,1.10804,0.87021,0.00051974,1.83997,1.01909
1.26,-0.55148,1.10192,0.875598,-0,1.8472,1.01773
1.27,-0.573898,1.09648,0.881226,0.000347007,1.85444,1.01648
1.28,-0.592779,1.09074,0.887059,-0,1.86163,1.01527
1.29,-0.608752,1.08529,0.893067,-0,1.86906,1.01424
1.3,-0.621641,1.08015,0.899219,-0,1.8761,1.01323
1.31,-0.631586,1.07481,0.905486,-0,1.88366,1.01229
1.32,-0.638872,1.06943,0.911839,-0,1.89144,1.01138
1.33,-0.64359,1.06424,0.918252,-0,1.89917,1.01059
1.34,-0.645795,1.0592,0.924698,9.61218e-05,1.90683,1.00981
1.35,-0.64585,1.05409,0.931157,0.000197841,1.91473,1.00904
1.36,-0.643867,1.04906,0.937605,-0,1.9223,1.0083
1.37,-0.640098,1.0441,0.944025,-0,1.93002,1.00756
1.38,-0.634184,1.03916,0.950397,-0,1.93769,1.00678
1.39,-0.626794,1.0347,0.956702,0.000719475,1.94524,1.00599
1.4,-0.617872,1.02957,0.962926,2.93854e-08,1.95271,1.00522
1.41,-0.607355,1.02482,0.969052,2.11851e-08,1.96015,1.0044
1.42,-0.59552,1.02009,0.975067,6.79184e-09,1.96759,1.00356
1.43,-0.582318,1.01624,0.980957,0.000982898,1.97463,1.00285
1.44,-0.5677,1.01135,0.986707,4.86704e-09,1.98181,1.00215
1.45,-0.551818,1.00772,0.992305,0.000989054,1.98854,1.00145
1.46,-0.534777,1.00349,0.997739,0.00114242,1.99563,1.00073
1.47,-0.516471,0.999625,1.003,0.000930098,2.00171,1.00002
1.48,-0.497152,0.995507,1.00806,0.000586067,2.00829,0.999344
1.49,-0.47684,0.991909,1.01294,0.00106118,2.01473,0.998689
1.5,-0.455657,0.988226,1.0176,0.000597827,2.0205,0.998058
1.51,-0.433875,0.985198,1.02205,0.000796485,2.02578,0.997507
1.52,-0.411361,0.982187,1.02627,0.00054572,2.03073,0.997012
1.53,-0.388319,0.982365,1.03027,0.00652751,2.03539,0.996539
1.54,-0.3648,0.981337,1.03404,0.00975891,2.03999,0.996171
1.55,-0.341175,0.98103,1.03757,0.0140218,2.04425,0.995858
1.56,-0.317264,0.981235,1.04086,0.0188487,2.04812,0.995596
1.57,-0.293452,0.981776,1.04391,0.0240437,2.05181,0.995408
1.58,-0.270063,0.982626,1.04673,0.0290031,2.05491,0.995356
1.59,-0.247384,0.983822,1.04931,0.034109,2.05763,0.995394
1.6,-0.225352,0.98499,1.05168,0.0387322,2.05995,0.995441
1.61,-0.204302,0.986482,1.05383,0.043406,2.06173,0.995519
1.62,-0.184176,0.988111,1.05577,0.0478971,2.0632,0.995672
1.63,-0.165025,0.989811,1.05751,0.0518424,2.06429,0.99597
1.64,-0.146807,0.99177,1.05907,0.0555525,2.06513,0.99652
1.65,-0.12961,0.994108,1.06045,0.0590822,2.06547,0.997281
1.66,-0.113403,0.996926,1.06167,0.0626321,2.0653,0.998257
1.67,-0.0983655,0.999833,1.06273,0.0660189,2.06503,0.999339
1.68,-0.0841894,1.00256,1.06364,0.0689512,2.06478,1.00047
1.69,-0.0709442,1.00518,1.06441,0.0715873,2.06449,1.00161
1.7,-0.0579773,1.00769,1.06506,0.0737745,2.06389,1.00271
1.71,-0.045501,1.01035,1.06558,0.0757496,2.06254,1.00367
1.72,-0.0336745,1.0131,1.06597,0.0775183,2.06054,1.0045
1.73,-0.0223979,1.01579,1.06625,0.0789531,2.05827,1.00528
1.74,-0.0115626,1.01845,1.06642,0.0801349,2.05564,1.00597
1.75,-0.000972526,1.0207,1.06649,0.0810375,2.05324,1.00651
1.76,0.00934665,1.0224,1.06645,0.0816399,2.05123,1.00686
