time,velocity,ratio,centerX,Xmax,Xmin,Ymax
0,0,1,1.5,0.5,2.5,1
0.01,0.0175563,1.00002,1.49991,0.499933,2.49991,1
0.02,0.0345521,1.00006,1.49965,0.499727,2.49963,1.00001
0.03,0.0509665,1.00014,1.49923,0.499391,2.49917,1.00003
0.04,0.0668682,1.00024,1.49864,0.498913,2.49855,1.00006
0.05,0.0820611,1.00036,1.4979,0.498304,2.49775,1.00009
0.06,0.0969411,1.00051,1.497,0.497561,2.49679,1.00013
0.07,0.111212,1.00068,1.49597,0.496682,2.49567,1.00017
0.08,0.124836,1.00086,1.49479,0.495667,2.49441,1.00022
0.09,0.138231,1.00104,1.49347,0.494519,2.49299,1.00028
0.1,0.151224,1.00125,1.49203,0.493239,2.49144,1.00034
0.11,0.164077,1.00147,1.49045,0.491832,2.48974,1.00042
0.12,0.176344,1.00169,1.48875,0.4903,2.48792,1.0005
0.13,0.188448,1.00191,1.48693,0.488644,2.48598,1.00057
0.14,0.199991,1.00211,1.48499,0.486844,2.48393,1.00065
0.15,0.211159,1.0023,1.48294,0.484914,2.48176,1.00072
0.16,0.222231,1.00249,1.48077,0.482872,2.47946,1.00078
0.17,0.232725,1.00267,1.4785,0.480722,2.47704,1.00083
0.18,0.242822,1.00286,1.47612,0.478476,2.47452,1.00087
0.19,0.253081,1.00305,1.47364,0.476131,2.47191,1.00093
0.2,0.262619,1.00322,1.47107,0.473674,2.46921,1.00098
0.21,0.271825,1.00337,1.4684,0.471134,2.46645,1.00102
0.22,0.280831,1.0035,1.46563,0.468504,2.46364,1.00105
0.23,0.289605,1.00361,1.46278,0.465777,2.46073,1.00108
0.24,0.298387,1.00375,1.45984,0.462968,2.45773,1.00112
0.25,0.306677,1.00388,1.45682,0.460064,2.45466,1.00117
0.26,0.314786,1.004,1.45371,0.457076,2.4515,1.0012
0.27,0.322703,1.00409,1.45053,0.454003,2.4483,1.00122
0.28,0.330442,1.00415,1.44726,0.450828,2.44504,1.00124
0.29,0.33782,1.00424,1.44392,0.44758,2.44167,1.00127
0.3,0.345004,1.00434,1.44051,0.444262,2.43822,1.00131
0.31,0.351994,1.00445,1.43703,0.440873,2.43467,1.00133
0.32,0.3587,1.00452,1.43348,0.437416,2.43109,1.00134
0.33,0.365184,1.00459,1.42986,0.433882,2.42745,1.00136
0.34,0.37139,1.0047,1.42617,0.430293,2.42373,1.00141
0.35,0.377698,1.00482,1.42243,0.426641,2.41992,1.00144
0.36,0.38348,1.00492,1.41862,0.422948,2.41604,1.00145
0.37,0.389367,1.00501,1.41476,0.419182,2.41213,1.00146
0.38,0.394833,1.00514,1.41084,0.415345,2.40815,1.00152
0.39,0.400372,1.00527,1.40686,0.411456,2.40409,1.00157
0.4,0.405434,1.00539,1.40284,0.40754,2.39998,1.00159
0.41,0.410402,1.0055,1.39876,0.403583,2.39584,1.00161
0.42,0.415405,1.00567,1.39463,0.399585,2.39166,1.00168
0.43,0.4199,1.00583,1.39045,0.395555,2.3874,1.00173
0.44,0.424073,1.00599,1.38623,0.391501,2.38309,1.00176
0.45,0.428127,1.00614,1.38197,0.3874,2.37877,1.0018
0.46,0.432473,1.00631,1.37767,0.383238,2.3744,1.00187
0.47,0.436228,1.00647,1.37333,0.379012,2.36995,1.00191
0.48,0.440198,1.00658,1.36895,0.374742,2.3655,1.00193
0.49,0.444083,1.00675,1.36453,0.370473,2.36103,1.002
0.5,0.447487,1.00693,1.36007,0.36617,2.3565,1.00206
0.51,0.450995,1.0071,1.35558,0.36183,2.3519,1.00209
0.52,0.454372,1.00726,1.35105,0.357463,2.3473,1.00214
0.53,0.457568,1.00744,1.34649,0.353047,2.34266,1.00221
0.54,0.460495,1.00761,1.3419,0.348607,2.33796,1.00225
0.55,0.463415,1.00775,1.33729,0.344144,2.33326,1.00226
0.56,0.466037,1.00792,1.33264,0.339651,2.32856,1.00233
0.57,0.468704,1.0081,1.32797,0.335147,2.3238,1.00238
0.58,0.470893,1.00827,1.32327,0.330627,2.319,1.0024
0.59,0.473215,1.00844,1.31855,0.326082,2.31422,1.00246
0.6,0.475479,1.00862,1.31381,0.321503,2.3094,1.00252
0.61,0.477373,1.00878,1.30904,0.316893,2.30454,1.00255
0.62,0.47929,1.00893,1.30426,0.312265,2.29971,1.00259
0.63,0.480754,1.0091,1.29946,0.307638,2.29487,1.00266
0.64,0.48246,1.00928,1.29464,0.302999,2.28996,1.0027
0.65,0.483775,1.00945,1.28981,0.298359,2.28505,1.00273
0.66,0.48527,1.00965,1.28497,0.293703,2.28014,1.0028
0.67,0.486332,1.00984,1.28011,0.289031,2.27519,1.00285
0.68,0.487309,1.01002,1.27524,0.284359,2.27023,1.00288
0.69,0.488265,1.01023,1.27037,0.279684,2.26529,1.00296
0.7,0.489148,1.01044,1.26548,0.275018,2.26032,1.00301
0.71,0.489535,1.01063,1.26059,0.270349,2.25532,1.00304
0.72,0.490087,1.01087,1.25569,0.265688,2.25035,1.00312
0.73,0.490495,1.01111,1.25079,0.26102,2.24533,1.00318
0.74,0.490669,1.01131,1.24588,0.25633,2.24032,1.00322
0.75,0.490581,1.01152,1.24098,0.251628,2.23535,1.00329
0.76,0.490493,1.01175,1.23607,0.246951,2.23036,1.00336
0.77,0.49027,1.01198,1.23117,0.242283,2.22533,1.00341
0.78,0.489901,1.01222,1.22627,0.237607,2.22033,1.00347
0.79,0.489305,1.01248,1.22137,0.232966,2.21534,1.00355
0.8,0.488734,1.01272,1.21648,0.228315,2.21031,1.0036
0.81,0.48791,1.01296,1.2116,0.223664,2.20533,1.00367
0.82,0.487097,1.01321,1.20673,0.219036,2.20036,1.00375
0.83,0.486004,1.01346,1.20186,0.214434,2.19538,1.0038
0.84,0.484909,1.01369,1.19701,0.209835,2.19042,1.00385
0.85,0.48371,1.01396,1.19216,0.205272,2.18548,1.00393
0.86,0.482242,1.01424,1.18734,0.200758,2.18054,1.00399
0.87,0.480526,1.01448,1.18252,0.196212,2.17562,1.00403
0.88,0.478899,1.01474,1.17772,0.191672,2.17075,1.00412
0.89,0.477132,1.01501,1.17294,0.187187,2.16586,1.00419
0.9,0.475078,1.01527,1.16818,0.182736,2.16097,1.00422
0.91,0.473014,1.01554,1.16344,0.178281,2.15616,1.00431
0.92,0.470762,1.01584,1.15873,0.1739,2.15134,1.00438
0.93,0.468308,1.01613,1.15403,0.169553,2.14653,1.00443
0.94,0.465817,1.01641,1.14936,0.16519,2.14177,1.00451
0.95,0.463223,1.01671,1.14472,0.160875,2.13703,1.00459
0.96,0.460499,1.01703,1.1401,0.156646,2.13229,1.00465
0.97,0.4574,1.01733,1.13551,0.152407,2.1276,1.00471
0.98,0.454337,1.01765,1.13095,0.1482,2.12294,1.0048
0.99,0.451118,1.01799,1.12642,0.144078,2.1183,1.00487
1,0.447689,1.01831,1.12193,0.139985,2.11368,1.00492
1.01,0.444131,1.01867,1.11747,0.135914,2.10912,1.00502
1.02,0.440522,1.01904,1.11305,0.131901,2.10457,1.00511
1.03,0.436623,1.01942,1.10866,0.127975,2.10002,1.00517
1.04,0.43246,1.0198,1.10432,0.124059,2.09555,1.00526
1.05,0.428341,1.0202,1.10001,0.1202,2.09111,1.00536
1.06,0.424017,1.02059,1.09575,0.116374,2.08669,1.00545
1.07,0.419461,1.021,1.09153,0.112649,2.08232,1.00551
1.08,0.41485,1.02144,1.08736,0.108976,2.07802,1.00562
1.09,0.410099,1.02188,1.08324,0.105358,2.07374,1.00573
1.1,0.405083,1.02233,1.07916,0.101791,2.06949,1.00581
1.11,0.399878,1.02277,1.07514,0.0983037,2.06532,1.0059
1.12,0.394651,1.02326,1.07117,0.0948939,2.0612,1.00602
1.13,0.389234,1.02375,1.06725,0.0915615,2.05712,1.00612
1.14,0.383645,1.02423,1.06338,0.0882687,2.05308,1.00621
1.15,0.377845,1.0247,1.05957,0.0850474,2.04914,1.0063
1.16,0.371924,1.02522,1.05583,0.0819021,2.04524,1.00642
1.17,0.365939,1.02576,1.05214,0.0788684,2.04137,1.00653
1.18,0.359782,1.02629,1.04851,0.0758789,2.03755,1.00662
1.19,0.353488,1.0268,1.04494,0.0729588,2.03383,1.00672
1.2,0.34702,1.02735,1.04144,0.0700973,2.03017,1.00684
1.21,0.340433,1.02791,1.038,0.0673194,2.02655,1.00695
1.22,0.333685,1.02846,1.03463,0.0646272,2.023,1.00705
1.23,0.326875,1.02898,1.03133,0.0620007,2.01954,1.00714
1.24,0.319808,1.02954,1.0281,0.0594498,2.01616,1.00726
1.25,0.312676,1.03011,1.02493,0.0569594,2.01282,1.00738
1.26,0.30547,1.03069,1.02184,0.0545711,2.00954,1.00748
1.27,0.298199,1.03125,1.01883,0.0522603,2.00635,1.00758
1.28,0.290787,1.03178,1.01588,0.0500074,2.00326,1.00766
1.29,0.283279,1.03237,1.01301,0.0478479,2.00023,1.00779
1.3,0.275805,1.03296,1.01021,0.0457743,1.99726,1.0079
1.31,0.268234,1.03354,1.00749,0.0437933,1.99437,1.008
1.32,0.260608,1.03411,1.00485,0.0419114,1.99157,1.00808
1.33,0.252965,1.03467,1.00228,0.0401099,1.98888,1.00816
1.34,0.245293,1.03524,0.999792,0.0383925,1.98625,1.00825
1.35,0.237454,1.03582,0.997378,0.0367277,1.98369,1.00835
1.36,0.229648,1.03639,0.995042,0.0351586,1.98121,1.00843
1.37,0.221865,1.03694,0.992785,0.0336468,1.9788,1.00851
1.38,0.214136,1.03747,0.990605,0.0322138,1.97651,1.00858
1.39,0.206437,1.038,0.988502,0.0308921,1.97432,1.00864
1.4,0.198791,1.03854,0.986476,0.029692,1.9722,1.00869
1.41,0.191165,1.03906,0.984526,0.0284859,1.97015,1.00875
1.42,0.18349,1.03956,0.982653,0.0273457,1.96818,1.00881
1.43,0.175871,1.04004,0.980856,0.0262626,1.96629,1.00886
1.44,0.16835,1.0405,0.979135,0.025231,1.96449,1.0089
1.45,0.161022,1.04095,0.977489,0.0242813,1.96278,1.00894
1.46,0.153772,1.04138,0.975915,0.0233958,1.96116,1.00898
1.47,0.146652,1.04177,0.974413,0.0225273,1.95963,1.00901
1.48,0.139596,1.04217,0.972982,0.0217391,1.95816,1.00904
1.49,0.132646,1.04254,0.97162,0.021003,1.95676,1.00906
1.5,0.125752,1.04289,0.970328,0.0202877,1.95544,1.00908
1.51,0.118954,1.04324,0.969105,0.0196255,1.95419,1.0091
1.52,0.112121,1.04358,0.967949,0.0190278,1.95299,1.00912
1.53,0.105403,1.04388,0.966862,0.018427,1.95186,1.00913
1.54,0.0988988,1.04417,0.965841,0.0178962,1.95081,1.00914
1.55,0.0925298,1.04441,0.964883,0.0173541,1.94983,1.00915
1.56,0.0863463,1.04462,0.963989,0.0168337,1.94893,1.00915
1.57,0.0803377,1.0448,0.963155,0.0163645,1.94811,1.00915
1.58,0.0745308,1.04494,0.962381,0.0158968,1.94737,1.00914
1.59,0.0689429,1.04506,0.961664,0.0154506,1.94668,1.00913
1.6,0.0635873,1.04517,0.961001,0.0150561,1.94605,1.00911
1.61,0.0584433,1.04527,0.960391,0.0146938,1.94547,1.00909
1.62,0.0535244,1.04532,0.95983,0.0143337,1.94494,1.00905
1.63,0.0488092,1.04534,0.959319,0.0139746,1.94446,1.00901
1.64,0.0442959,1.04533,0.958853,0.0136285,1.94405,1.00897
1.65,0.0399943,1.04529,0.958431,0.0132936,1.9437,1.00892
1.66,0.0359036,1.04523,0.958051,0.012978,1.9434,1.00886
1.67,0.0320144,1.04513,0.957711,0.012673,1.94314,1.0088
1.68,0.0283252,1.04502,0.957409,0.0123676,1.94293,1.00874
1.69,0.0248461,1.04488,0.957143,0.0120768,1.94277,1.00867
1.7,0.0215605,1.04471,0.95691,0.0117976,1.94266,1.00859
1.71,0.0184813,1.04453,0.95671,0.0115225,1.94257,1.00852
1.72,0.0156057,1.04433,0.956539,0.0112558,1.94252,1.00844
1.73,0.012911,1.04411,0.956396,0.0109911,1.94251,1.00836
1.74,0.0104061,1.04388,0.956279,0.0107342,1.94253,1.00828
1.75,0.00810543,1.04363,0.956186,0.0104711,1.94257,1.0082
1.76,0.00597487,1.04338,0.956115,0.0102101,1.94263,1.00812
1.77,0.00401667,1.04311,0.956065,0.00994892,1.94272,1.00805
1.78,0.00224685,1.04284,0.956033,0.00968927,1.94282,1.00797
1.79,0.000660934,1.04256,0.956018,0.00943722,1.94294,1.00789
1.8,-0.000728194,1.04228,0.956018,0.00918884,1.94307,1.00782
1.81,-0.00198637,1.042,0.956031,0.00894481,1.9432,1.00775
1.82,-0.00308276,1.04173,0.956056,0.00870582,1.94334,1.00768
1.83,-0.00401966,1.04145,0.956091,0.00847443,1.94348,1.00761
1.84,-0.00483495,1.04118,0.956135,0.00824818,1.94362,1.00754
1.85,-0.00551218,1.04092,0.956186,0.00803629,1.94378,1.00747
1.86,-0.00606567,1.04066,0.956244,0.00782982,1.94393,1.00741
1.87,-0.00649793,1.0404,0.956307,0.00762817,1.94408,1.00735
1.88,-0.00681474,1.04015,0.956373,0.00742301,1.94423,1.00729
1.89,-0.00702759,1.0399,0.956442,0.00722025,1.94439,1.00724
1.9,-0.00713769,1.03966,0.956513,0.00701266,1.94455,1.00718
1.91,-0.00715351,1.03941,0.956584,0.00679993,1.9447,1.00713
1.92,-0.00707059,1.03916,0.956655,0.00658465,1.94486,1.00709
1.93,-0.00690286,1.03891,0.956724,0.00636356,1.94501,1.00704
1.94,-0.00665522,1.03867,0.956792,0.00614599,1.94516,1.007
1.95,-0.00632967,1.03844,0.956856,0.00593211,1.9453,1.00695
1.96,-0.00593752,1.03821,0.956918,0.00571994,1.94542,1.00691
1.97,-0.0054831,1.03799,0.956974,0.00550834,1.94555,1.00687
1.98,-0.00497653,1.03777,0.957027,0.00529994,1.94566,1.00683
1.99,-0.00441896,1.03757,0.957073,0.00509535,1.94577,1.00679
2,-0.0038188,1.03737,0.957114,0.00489448,1.94587,1.00675
2.01,-0.00317971,1.03718,0.957149,0.00469738,1.94596,1.00672
2.02,-0.00250829,1.037,0.957177,0.00450766,1.94605,1.00669
2.03,-0.0018098,1.03683,0.957199,0.00432376,1.94612,1.00666
2.04,-0.0010869,1.03667,0.957213,0.00414484,1.94618,1.00663
2.05,-0.000345443,1.03653,0.95722,0.00397007,1.94624,1.00661
2.06,0.000408852,1.03543,0.95722,0.00199569,1.94629,1.00658
