time,velocity,ratio,centerX,Xmax,Xmin,Ymax
0,0,1,8.5,7.5,9.5,1
0.01,0.0196011,0.999995,8.4999,7.4999,9.49991,0.999999
0.02,0.0386053,1,8.49961,7.49962,9.49961,1
0.03,0.0570229,1.00004,8.49914,7.49917,9.49911,1.00001
0.04,0.0748491,1.00007,8.49848,7.49853,9.49843,1.00002
0.05,0.0921407,1.00009,8.49764,7.4977,9.49758,1.00003
0.06,0.108949,1.00011,8.49664,7.49671,9.49656,1.00004
0.07,0.125277,1.00014,8.49547,7.49556,9.49537,1.00004
0.08,0.141165,1.00015,8.49414,7.49425,9.49402,1.00003
0.09,0.156703,1.00016,8.49265,7.49278,9.49251,1.00002
0.1,0.171966,1.00017,8.49101,7.49116,9.49086,1.00002
0.11,0.186993,1.00017,8.48921,7.48937,9.48909,1.00003
0.12,0.201615,1.00014,8.48727,7.48738,9.48721,1.00005
0.13,0.215854,1.00013,8.48519,7.48527,9.48515,1.00007
0.14,0.229722,1.00015,8.48296,7.48306,9.48291,1.00008
0.15,0.24319,1.00017,8.4806,7.48072,9.48051,1.00006
0.16,0.256248,1.00019,8.4781,7.47827,9.47795,1.00003
0.17,0.269015,1.00022,8.47547,7.47567,9.47528,1.00003
0.18,0.281609,1.00025,8.47272,7.47293,9.47251,1.00005
0.19,0.294003,1.00022,8.46984,7.46999,9.46972,1.00008
0.2,0.30603,1.00022,8.46685,7.46697,9.46674,1.0001
0.21,0.317644,1.00027,8.46373,7.46389,9.46356,1.0001
0.22,0.328938,1.00031,8.4605,7.46071,9.46027,1.00009
0.23,0.340161,1.0004,8.45715,7.45745,9.45684,1.0001
0.24,0.351224,1.00042,8.45369,7.45403,9.45341,1.00011
0.25,0.361854,1.0004,8.45013,7.45044,9.44989,1.00013
0.26,0.37213,1.0004,8.44646,7.44674,9.4462,1.00013
0.27,0.382131,1.00042,8.44269,7.44294,9.44241,1.00015
0.28,0.392345,1.00045,8.43882,7.43912,9.43851,1.00014
0.29,0.402205,1.00046,8.43485,7.43519,9.43455,1.00014
0.3,0.411655,1.00047,8.43078,7.43114,9.43045,1.00012
0.31,0.421021,1.0005,8.42662,7.42696,9.42626,1.00015
0.32,0.430313,1.00047,8.42236,7.42269,9.42204,1.00015
0.33,0.439291,1.00046,8.41801,7.41834,9.41775,1.00016
0.34,0.447956,1.00049,8.41358,7.41393,9.41328,1.00016
0.35,0.456693,1.00054,8.40906,7.40942,9.40868,1.00017
0.36,0.465278,1.00053,8.40445,7.40482,9.40408,1.00016
0.37,0.473461,1.00055,8.39975,7.40016,9.39938,1.00016
0.38,0.481501,1.00061,8.39498,7.39541,9.39456,1.00019
0.39,0.489603,1.00062,8.39013,7.39056,9.38971,1.00019
0.4,0.497316,1.00058,8.38519,7.3856,9.38483,1.0002
0.41,0.504864,1.00065,8.38018,7.38063,9.37974,1.00021
0.42,0.512504,1.00071,8.3751,7.37559,9.37461,1.00022
0.43,0.519801,1.00067,8.36993,7.37042,9.36951,1.00021
0.44,0.527061,1.00071,8.3647,7.36522,9.36423,1.00022
0.45,0.534295,1.00077,8.3594,7.35994,9.35888,1.00024
0.46,0.54118,1.00071,8.35402,7.35452,9.35357,1.00024
0.47,0.547993,1.00074,8.34857,7.34909,9.34808,1.00024
0.48,0.554827,1.00079,8.34306,7.3436,9.34252,1.00025
0.49,0.561207,1.00075,8.33748,7.338,9.33699,1.00024
0.5,0.567708,1.0008,8.33184,7.33239,9.33129,1.00025
0.51,0.574165,1.00083,8.32613,7.32671,9.32556,1.00026
0.52,0.580265,1.00079,8.32036,7.32092,9.31984,1.00025
0.53,0.586482,1.00085,8.31452,7.31511,9.31396,1.00027
0.54,0.592505,1.00085,8.30863,7.30922,9.30807,1.00027
0.55,0.598325,1.00085,8.30268,7.30327,9.30212,1.00027
0.56,0.604274,1.00091,8.29666,7.2973,9.29605,1.00029
0.57,0.609881,1.00087,8.29059,7.29121,9.29003,1.00028
0.58,0.615545,1.00092,8.28447,7.2851,9.28385,1.0003
0.59,0.621115,1.00095,8.27828,7.27895,9.27765,1.0003
0.6,0.626434,1.00092,8.27205,7.27268,9.27144,1.0003
0.61,0.631901,1.00099,8.26576,7.26643,9.26509,1.00031
0.62,0.637035,1.00095,8.25941,7.2601,9.25879,1.0003
0.63,0.642261,1.00099,8.25302,7.2537,9.25236,1.00032
0.64,0.647426,1.00103,8.24657,7.2473,9.24588,1.00032
0.65,0.652299,1.001,8.24007,7.24078,9.23943,1.00033
0.66,0.657357,1.00106,8.23352,7.23426,9.23283,1.00034
0.67,0.662065,1.00101,8.22693,7.22765,9.22628,1.00032
0.68,0.666967,1.00106,8.22028,7.22099,9.21958,1.00035
0.69,0.671644,1.00107,8.21359,7.21434,9.21287,1.00033
0.7,0.676279,1.00107,8.20685,7.20758,9.20614,1.00035
0.71,0.680881,1.00111,8.20006,7.20084,9.19931,1.00035
0.72,0.685317,1.00109,8.19323,7.194,9.19252,1.00035
0.73,0.689781,1.00113,8.18636,7.18712,9.1856,1.00037
0.74,0.694152,1.0011,8.17944,7.18022,9.17872,1.00034
0.75,0.698545,1.00113,8.17248,7.17324,9.17174,1.00038
0.76,0.702746,1.00113,8.16547,7.16628,9.16473,1.00035
0.77,0.706987,1.00116,8.15842,7.15921,9.15767,1.00038
0.78,0.711079,1.00117,8.15133,7.15216,9.15055,1.00037
0.79,0.715103,1.00119,8.1442,7.14502,9.14342,1.00039
0.8,0.719139,1.00121,8.13703,7.13787,9.13622,1.00039
0.81,0.722974,1.00121,8.12982,7.13068,9.12903,1.00039
0.82,0.726877,1.00124,8.12257,7.12342,9.12174,1.0004
0.83,0.730547,1.00123,8.11529,7.11616,9.11449,1.0004
0.84,0.734395,1.00127,8.10796,7.10882,9.10712,1.00042
0.85,0.738032,1.00124,8.1006,7.10149,9.0998,1.0004
0.86,0.741835,1.00129,8.0932,7.09407,9.09235,1.00043
0.87,0.745356,1.00126,8.08577,7.08666,9.08494,1.0004
0.88,0.748994,1.00131,8.0783,7.07918,9.07743,1.00043
0.89,0.752436,1.00128,8.07079,7.07169,9.06994,1.0004
0.9,0.756029,1.00132,8.06325,7.06414,9.06237,1.00044
0.91,0.759443,1.0013,8.05567,7.05659,9.0548,1.00041
0.92,0.762883,1.00134,8.04806,7.04897,9.04719,1.00044
0.93,0.766147,1.00132,8.04042,7.04134,9.03954,1.00042
0.94,0.76947,1.00136,8.03274,7.03366,9.03185,1.00045
0.95,0.772506,1.00135,8.02503,7.02596,9.02413,1.00043
0.96,0.775781,1.00138,8.01729,7.01824,9.01638,1.00046
0.97,0.77883,1.00138,8.00951,7.01047,9.00859,1.00044
0.98,0.781971,1.00141,8.00171,7.00268,9.00079,1.00046
0.99,0.78509,1.00141,7.99388,6.99486,8.99292,1.00044
1,0.788098,1.00144,7.98601,6.98701,8.98508,1.00047
1.01,0.790971,1.00143,7.97811,6.97911,8.97717,1.00046
1.02,0.79395,1.00146,7.97019,6.9712,8.96925,1.00049
1.03,0.796759,1.00145,7.96224,6.96324,8.96127,1.00046
1.04,0.799672,1.00149,7.95426,6.95528,8.95329,1.00049
1.05,0.802378,1.00147,7.94625,6.94727,8.94526,1.00046
1.06,0.805204,1.0015,7.93821,6.93925,8.93723,1.00049
1.07,0.807854,1.00147,7.93014,6.93117,8.92916,1.00046
1.08,0.810698,1.0015,7.92205,6.92308,8.92108,1.0005
1.09,0.813317,1.00146,7.91393,6.91495,8.91296,1.00047
1.1,0.81594,1.00151,7.90579,6.90682,8.9048,1.0005
1.11,0.818469,1.00149,7.89761,6.89865,8.89663,1.00048
1.12,0.821165,1.00155,7.88942,6.89048,8.8884,1.00051
1.13,0.823538,1.00152,7.88119,6.88226,8.8802,1.00049
1.14,0.826159,1.00157,7.87294,6.87402,8.87191,1.00051
1.15,0.828582,1.00155,7.86467,6.86576,8.86368,1.0005
1.16,0.83121,1.00159,7.85637,6.85746,8.85533,1.00052
1.17,0.83357,1.00157,7.84805,6.84914,8.84704,1.00052
1.18,0.836017,1.00161,7.8397,6.8408,8.83863,1.00052
1.19,0.838335,1.0016,7.83133,6.83244,8.83029,1.00053
1.2,0.840649,1.00162,7.82294,6.82406,8.82185,1.00052
1.21,0.842952,1.00162,7.81452,6.81565,8.81347,1.00053
1.22,0.84518,1.00162,7.80608,6.8072,8.805,1.00051
1.23,0.847616,1.00163,7.79762,6.79874,8.79656,1.00054
1.24,0.849764,1.0016,7.78913,6.79025,8.78807,1.00051
1.25,0.852098,1.00164,7.78062,6.78175,8.77955,1.00055
1.26,0.854286,1.00162,7.77209,6.77321,8.77103,1.00052
1.27,0.856476,1.00167,7.76354,6.76468,8.76244,1.00055
1.28,0.85845,1.00164,7.75496,6.75611,8.75389,1.00053
1.29,0.860634,1.00169,7.74637,6.74752,8.74524,1.00054
1.3,0.862628,1.00167,7.73775,6.73892,8.73668,1.00055
1.31,0.864712,1.00169,7.72911,6.73029,8.728,1.00055
1.32,0.866759,1.0017,7.72046,6.72163,8.71937,1.00056
1.33,0.868688,1.0017,7.71178,6.71296,8.71065,1.00054
1.34,0.870752,1.00173,7.70308,6.70427,8.70196,1.00057
1.35,0.872619,1.0017,7.69437,6.69556,8.69324,1.00054
1.36,0.874674,1.00175,7.68563,6.68682,8.68448,1.00057
1.37,0.876518,1.00172,7.67687,6.67807,8.67576,1.00056
1.38,0.878476,1.00175,7.6681,6.6693,8.66695,1.00057
1.39,0.880324,1.00173,7.65931,6.6605,8.65819,1.00058
1.4,0.882238,1.00175,7.65049,6.65169,8.64933,1.00057
1.41,0.884162,1.00176,7.64166,6.64289,8.64053,1.00058
1.42,0.885964,1.00175,7.63281,6.63405,8.63165,1.00055
1.43,0.887814,1.00178,7.62394,6.62517,8.62278,1.00058
1.44,0.889511,1.00176,7.61506,6.61628,8.61392,1.00057
1.45,0.89133,1.00179,7.60615,6.60738,8.60499,1.00059
1.46,0.893061,1.00177,7.59723,6.59845,8.59609,1.00059
1.47,0.894754,1.0018,7.58829,6.58952,8.5871,1.00058
1.48,0.896566,1.0018,7.57934,6.58058,8.57817,1.0006
1.49,0.898168,1.0018,7.57036,6.57162,8.56916,1.00056
1.5,0.89992,1.00182,7.56137,6.56262,8.56018,1.0006
1.51,0.901352,1.0018,7.55237,6.55361,8.55119,1.00059
1.52,0.903081,1.00183,7.54335,6.5446,8.54214,1.0006
1.53,0.904677,1.00182,7.53431,6.53556,8.53313,1.00061
1.54,0.906312,1.00183,7.52525,6.52651,8.52403,1.00059
1.55,0.907955,1.00185,7.51618,6.51746,8.51499,1.00061
1.56,0.909392,1.00184,7.5071,6.50838,8.50588,1.00059
1.57,0.911192,1.00187,7.49799,6.49928,8.49676,1.00061
1.58,0.912564,1.00186,7.48887,6.49017,8.48767,1.00061
1.59,0.913984,1.00189,7.47974,6.48104,8.4785,1.00061
1.6,0.915463,1.00189,7.4706,6.4719,8.46938,1.00063
1.61,0.916856,1.00189,7.46143,6.46274,8.46018,1.0006
1.62,0.918391,1.00191,7.45226,6.45357,8.45102,1.00063
1.63,0.919746,1.0019,7.44307,6.44438,8.44183,1.00062
1.64,0.921226,1.00192,7.43386,6.43518,8.43259,1.00062
1.65,0.922611,1.00191,7.42464,6.42597,8.42342,1.00063
1.66,0.924008,1.00191,7.41541,6.41673,8.41415,1.00061
1.67,0.925477,1.00192,7.40616,6.40748,8.40493,1.00064
1.68,0.926822,1.0019,7.3969,6.39822,8.39566,1.00062
1.69,0.928342,1.00194,7.38763,6.38896,8.38636,1.00063
1.7,0.92967,1.00193,7.37834,6.37968,8.37709,1.00063
1.71,0.930935,1.00194,7.36903,6.37039,8.36775,1.00062
1.72,0.93229,1.00194,7.35972,6.36108,8.35848,1.00064
1.73,0.933673,1.00193,7.35039,6.35173,8.34913,1.00062
1.74,0.935061,1.00196,7.34104,6.34238,8.33977,1.00065
1.75,0.9363,1.00195,7.33169,6.33304,8.33043,1.00065
1.76,0.937466,1.00198,7.32232,6.32369,8.32101,1.00063
1.77,0.938794,1.00199,7.31294,6.31431,8.31165,1.00065
1.78,0.939933,1.00197,7.30355,6.30492,8.30225,1.00063
1.79,0.941216,1.00199,7.29414,6.29551,8.29284,1.00066
1.8,0.942363,1.00198,7.28472,6.28608,8.28344,1.00066
1.81,0.943625,1.00199,7.27529,6.27666,8.27398,1.00065
1.82,0.944918,1.002,7.26585,6.26724,8.26457,1.00066
1.83,0.945991,1.00199,7.2564,6.25779,8.2551,1.00064
1.84,0.94723,1.00202,7.24693,6.24833,8.2456,1.00066
1.85,0.948301,1.00201,7.23745,6.23886,8.23616,1.00066
1.86,0.94938,1.00201,7.22796,6.22937,8.22664,1.00065
1.87,0.950594,1.00202,7.21846,6.21986,8.21717,1.00067
1.88,0.951691,1.00201,7.20895,6.21034,8.20764,1.00066
1.89,0.952912,1.00204,7.19943,6.20083,8.1981,1.00067
1.9,0.953982,1.00203,7.1899,6.1913,8.18858,1.00067
1.91,0.955079,1.00203,7.18035,6.18176,8.17899,1.00065
1.92,0.956307,1.00205,7.17079,6.17221,8.16947,1.00068
1.93,0.957202,1.00204,7.16123,6.16263,8.1599,1.00067
1.94,0.958355,1.00206,7.15165,6.15306,8.1503,1.00068
1.95,0.959421,1.00206,7.14206,6.14349,8.14074,1.00069
1.96,0.960449,1.00206,7.13246,6.13391,8.13111,1.00066
1.97,0.961575,1.00208,7.12285,6.12429,8.1215,1.00068
1.98,0.962617,1.00207,7.11323,6.11467,8.1119,1.00068
1.99,0.963633,1.00208,7.1036,6.10505,8.10223,1.00067
2,0.964752,1.00208,7.09396,6.09539,8.09262,1.00069
2.01,0.965664,1.00206,7.08431,6.08573,8.08296,1.00067
2.02,0.966689,1.00209,7.07465,6.07608,8.07328,1.00069
2.03,0.967646,1.00208,7.06498,6.06641,8.06363,1.00069
2.04,0.968551,1.00208,7.05529,6.05674,8.0539,1.00066
2.05,0.969571,1.0021,7.0456,6.04706,8.04425,1.00069
2.06,0.970542,1.00208,7.0359,6.03734,8.03455,1.00069
2.07,0.971524,1.0021,7.02619,6.02763,8.02481,1.00069
2.08,0.972476,1.00211,7.01647,6.01793,8.01512,1.0007
2.09,0.973256,1.00211,7.00675,6.00822,8.00537,1.00068
2.1,0.974372,1.00214,6.99701,5.99848,7.99561,1.0007
2.11,0.975185,1.00214,6.98726,5.98874,7.98588,1.0007
2.12,0.975997,1.00214,6.9775,5.979,7.97609,1.00069
2.13,0.976974,1.00215,6.96774,5.96923,7.96635,1.00072
2.14,0.977775,1.00214,6.95797,5.95943,7.95658,1.00071
2.15,0.978668,1.00216,6.94818,5.94967,7.94677,1.0007
2.16,0.979556,1.00216,6.93839,5.93989,7.937,1.00071
2.17,0.980371,1.00215,6.92859,5.93009,7.92718,1.00069
2.18,0.981298,1.00216,6.91879,5.92028,7.91738,1.00071
2.19,0.982128,1.00215,6.90897,5.91045,7.90758,1.00071
2.2,0.982992,1.00214,6.89914,5.90062,7.89772,1.00069
2.21,0.983866,1.00216,6.88931,5.8908,7.88793,1.00072
2.22,0.984706,1.00215,6.87947,5.88096,7.87808,1.00071
2.23,0.985463,1.00217,6.86962,5.87112,7.86818,1.0007
2.24,0.98628,1.00218,6.85976,5.86128,7.85837,1.00072
2.25,0.986874,1.00216,6.84989,5.8514,7.84849,1.0007
2.26,0.987797,1.00218,6.84002,5.84151,7.8386,1.00072
2.27,0.988508,1.00217,6.83014,5.83163,7.82874,1.00073
2.28,0.989172,1.00217,6.82025,5.82177,7.81882,1.00069
2.29,0.990099,1.00219,6.81035,5.81187,7.80893,1.00072
2.3,0.990802,1.00219,6.80045,5.80196,7.79903,1.00072
2.31,0.991574,1.00219,6.79054,5.79206,7.78909,1.00071
2.32,0.99241,1.0022,6.78062,5.78213,7.7792,1.00073
2.33,0.993128,1.00218,6.77069,5.77219,7.76927,1.00072
2.34,0.993915,1.00221,6.76076,5.76228,7.75932,1.00072
2.35,0.994676,1.00221,6.75081,5.75235,7.74939,1.00073
2.36,0.995203,1.00221,6.74086,5.74242,7.73942,1.00071
2.37,0.995957,1.00223,6.73091,5.73247,7.72947,1.00073
2.38,0.996683,1.00223,6.72095,5.72249,7.71952,1.00074
2.39,0.997321,1.00222,6.71098,5.71251,7.70951,1.00071
2.4,0.998116,1.00224,6.701,5.70255,7.69956,1.00074
2.41,0.998735,1.00224,6.69102,5.69256,7.68957,1.00074
2.42,0.999383,1.00225,6.68102,5.68258,7.67953,1.00072
2.43,1.00011,1.00226,6.67103,5.67259,7.66957,1.00074
2.44,1.00076,1.00224,6.66102,5.66257,7.65957,1.00073
2.45,1.00149,1.00225,6.65101,5.65255,7.64954,1.00073
2.46,1.00222,1.00225,6.64099,5.64255,7.63956,1.00075
2.47,1.00277,1.00224,6.63097,5.63254,7.62952,1.00073
2.48,1.00342,1.00226,6.62094,5.6225,7.61947,1.00074
2.49,1.00404,1.00225,6.6109,5.61247,7.60947,1.00074
2.5,1.00466,1.00224,6.60086,5.60243,7.59939,1.00072
2.51,1.00527,1.00225,6.59081,5.59236,7.58935,1.00074
2.52,1.00585,1.00225,6.58075,5.5823,7.5793,1.00075
2.53,1.00646,1.00225,6.57069,5.57226,7.56921,1.00072
2.54,1.00716,1.00227,6.56062,5.56219,7.55915,1.00075
2.55,1.00774,1.00226,6.55055,5.55211,7.54908,1.00074
2.56,1.00831,1.00228,6.54047,5.54205,7.53897,1.00073
2.57,1.00901,1.00228,6.53038,5.53196,7.52891,1.00076
2.58,1.00955,1.00227,6.52029,5.52186,7.51882,1.00075
2.59,1.01013,1.0023,6.51019,5.51179,7.5087,1.00075
2.6,1.0109,1.00231,6.50009,5.50169,7.49861,1.00076
2.61,1.01131,1.00231,6.48998,5.49159,7.48848,1.00075
2.62,1.01192,1.00232,6.47986,5.48148,7.47836,1.00075
2.63,1.01253,1.00232,6.46974,5.47134,7.46825,1.00077
2.64,1.01304,1.00231,6.45961,5.46121,7.4581,1.00075
2.65,1.01368,1.00232,6.44948,5.45108,7.44798,1.00077
2.66,1.01425,1.00232,6.43934,5.44094,7.43785,1.00077
2.67,1.01494,1.00231,6.42919,5.4308,7.42767,1.00074
2.68,1.01555,1.00232,6.41904,5.42065,7.41755,1.00076
2.69,1.01599,1.0023,6.40888,5.41047,7.4074,1.00076
2.7,1.0165,1.00229,6.39872,5.40031,7.39721,1.00074
2.71,1.01712,1.0023,6.38855,5.39015,7.38708,1.00076
2.72,1.01754,1.0023,6.37838,5.37998,7.37691,1.00076
2.73,1.018,1.00231,6.3682,5.36981,7.36669,1.00074
2.74,1.01853,1.00231,6.35802,5.35964,7.35654,1.00076
2.75,1.01909,1.00231,6.34783,5.34943,7.34634,1.00076
2.76,1.01956,1.00231,6.33764,5.33923,7.33612,1.00075
2.77,1.02011,1.00233,6.32744,5.32905,7.32595,1.00077
2.78,1.02057,1.00232,6.31723,5.31884,7.31574,1.00076
2.79,1.02108,1.00234,6.30703,5.30864,7.30549,1.00076
2.8,1.02164,1.00235,6.29681,5.29844,7.2953,1.00077
2.81,1.02205,1.00234,6.28659,5.28822,7.28508,1.00076
2.82,1.02267,1.00234,6.27637,5.27798,7.27484,1.00077
2.83,1.02307,1.00235,6.26614,5.26776,7.26464,1.00078
2.84,1.02346,1.00235,6.25591,5.25755,7.2544,1.00076
2.85,1.02384,1.00237,6.24567,5.24731,7.24413,1.00077
2.86,1.0243,1.00237,6.23543,5.23708,7.23392,1.00078
2.87,1.02472,1.00236,6.22519,5.22684,7.22366,1.00076
2.88,1.02527,1.00237,6.21494,5.21657,7.2134,1.00078
2.89,1.02582,1.00236,6.20468,5.20631,7.20317,1.00079
2.9,1.02629,1.00236,6.19442,5.19607,7.19289,1.00076
2.91,1.02682,1.00237,6.18416,5.1858,7.18262,1.00078
2.92,1.02727,1.00237,6.17389,5.17552,7.17236,1.00078
2.93,1.02776,1.00236,6.16361,5.16525,7.16206,1.00076
2.94,1.02837,1.00236,6.15333,5.15496,7.1518,1.00078
2.95,1.02887,1.00235,6.14305,5.14466,7.14153,1.00078
2.96,1.02922,1.00235,6.13275,5.1344,7.13121,1.00076
2.97,1.02975,1.00237,6.12246,5.1241,7.12094,1.00078
2.98,1.03016,1.00236,6.11216,5.1138,7.11065,1.00078
2.99,1.03051,1.00236,6.10186,5.10351,7.10031,1.00075
3,1.03102,1.00237,6.09155,5.09319,7.09002,1.00079
3.01,1.03141,1.00236,6.08124,5.08286,7.07971,1.00079
3.02,1.03179,1.00237,6.07092,5.07257,7.06937,1.00076
3.03,1.03229,1.00238,6.0606,5.06225,7.05906,1.00079
3.04,1.03271,1.00238,6.05028,5.05191,7.04873,1.00079
3.05,1.03308,1.00238,6.03995,5.0416,7.03837,1.00077
3.06,1.03349,1.00239,6.02962,5.03126,7.02807,1.0008
3.07,1.03383,1.00239,6.01928,5.02091,7.01774,1.00079
3.08,1.0342,1.0024,6.00894,5.01061,7.00737,1.00078
3.09,1.03478,1.00241,5.99859,5.00026,6.99704,1.0008
3.1,1.0352,1.0024,5.98825,4.98992,6.9867,1.00079
3.11,1.03555,1.00241,5.97789,4.97958,6.97632,1.00078
3.12,1.03599,1.00241,5.96753,4.9692,6.96599,1.0008
3.13,1.03649,1.0024,5.95717,4.95882,6.95562,1.0008
3.14,1.03684,1.00241,5.9468,4.94847,6.94523,1.00078
3.15,1.03732,1.00242,5.93643,4.9381,6.93488,1.0008
3.16,1.03763,1.0024,5.92606,4.92772,6.9245,1.00079
3.17,1.03796,1.00241,5.91568,4.91735,6.9141,1.00078
3.18,1.0383,1.00241,5.9053,4.90696,6.90375,1.0008
3.19,1.03864,1.00239,5.89492,4.89656,6.89337,1.00079
3.2,1.03893,1.00241,5.88453,4.8862,6.88296,1.00078
3.21,1.03919,1.00241,5.87414,4.87581,6.87259,1.0008
3.22,1.03949,1.0024,5.86374,4.86541,6.8622,1.00079
3.23,1.03981,1.00241,5.85335,4.85503,6.85178,1.00078
3.24,1.04022,1.00242,5.84295,4.84462,6.8414,1.0008
3.25,1.04049,1.0024,5.83254,4.8342,6.83099,1.00079
3.26,1.04087,1.00242,5.82214,4.82382,6.82056,1.00078
3.27,1.04123,1.00243,5.81173,4.81341,6.81017,1.0008
3.28,1.04156,1.00242,5.80131,4.80299,6.79974,1.00079
3.29,1.04189,1.00243,5.7909,4.79258,6.7893,1.00079
3.3,1.04227,1.00244,5.78048,4.78216,6.77891,1.00081
3.31,1.04252,1.00242,5.77005,4.77172,6.76848,1.0008
3.32,1.04278,1.00244,5.75963,4.76132,6.75804,1.00079
3.33,1.04314,1.00245,5.7492,4.7509,6.74763,1.00081
3.34,1.0433,1.00244,5.73877,4.74047,6.73719,1.0008
3.35,1.04361,1.00245,5.72833,4.73004,6.72674,1.00079
3.36,1.044,1.00245,5.71789,4.71959,6.71632,1.00081
3.37,1.04428,1.00244,5.70745,4.70913,6.70588,1.00081
3.38,1.04461,1.00245,5.69701,4.6987,6.69541,1.0008
3.39,1.045,1.00245,5.68656,4.68825,6.68498,1.00081
3.4,1.04528,1.00244,5.67611,4.67779,6.67452,1.0008
3.41,1.04562,1.00245,5.66565,4.66735,6.66405,1.00079
3.42,1.04601,1.00245,5.6552,4.65688,6.65362,1.00081
3.43,1.04634,1.00243,5.64473,4.6464,6.64316,1.00081
3.44,1.04661,1.00244,5.63427,4.63597,6.63268,1.00079
3.45,1.04703,1.00245,5.6238,4.6255,6.62223,1.00081
3.46,1.04728,1.00244,5.61333,4.61502,6.61176,1.0008
3.47,1.0474,1.00244,5.60286,4.60456,6.60127,1.00079
3.48,1.04779,1.00245,5.59238,4.59407,6.59081,1.00081
3.49,1.04804,1.00244,5.5819,4.58358,6.58032,1.00081
3.5,1.04828,1.00245,5.57142,4.57312,6.56982,1.00079
3.51,1.04865,1.00246,5.56094,4.56263,6.55935,1.00081
3.52,1.04887,1.00245,5.55045,4.55213,6.54885,1.00081
3.53,1.04909,1.00246,5.53996,4.54166,6.53834,1.00079
3.54,1.04951,1.00247,5.52947,4.53116,6.52787,1.00082
3.55,1.04983,1.00245,5.51897,4.52065,6.51739,1.00082
3.56,1.05006,1.00246,5.50847,4.51018,6.50686,1.00079
3.57,1.05058,1.00247,5.49797,4.49968,6.49638,1.00082
3.58,1.05067,1.00247,5.48746,4.48918,6.48588,1.00082
3.59,1.05089,1.00247,5.47695,4.47869,6.47534,1.00079
3.6,1.05121,1.00248,5.46644,4.46816,6.46485,1.00082
3.61,1.05144,1.00247,5.45593,4.45763,6.45434,1.00082
3.62,1.05166,1.00247,5.44541,4.44713,6.4438,1.00079
3.63,1.05192,1.00248,5.4349,4.43661,6.4333,1.00082
3.64,1.05211,1.00248,5.42438,4.42608,6.42278,1.00082
3.65,1.05227,1.00247,5.41385,4.41557,6.41222,1.00079
3.66,1.05259,1.00248,5.40333,4.40503,6.40173,1.00082
3.67,1.05281,1.00247,5.3928,4.3945,6.39121,1.00082
3.68,1.053,1.00247,5.38227,4.384,6.38066,1.0008
3.69,1.05336,1.00248,5.37174,4.37347,6.37015,1.00082
3.7,1.05354,1.00248,5.36121,4.36293,6.35962,1.00082
3.71,1.05365,1.00248,5.35067,4.3524,6.34906,1.0008
3.72,1.05402,1.00248,5.34013,4.34185,6.33853,1.00082
3.73,1.05422,1.00248,5.32959,4.3313,6.328,1.00083
3.74,1.05438,1.00248,5.31905,4.32078,6.31743,1.0008
3.75,1.05471,1.00249,5.3085,4.31022,6.30689,1.00082
3.76,1.05478,1.00249,5.29796,4.29967,6.29635,1.00083
3.77,1.05499,1.00249,5.28741,4.28914,6.28579,1.00081
