time,velocity,ratio,centerX,Xmax,Xmin,Ymax
0,0,1,1.75,0.75,2.75,1
0.01,0.0183125,1,1.74991,0.749913,2.74991,1
0.02,0.0360794,1.00003,1.74964,0.749673,2.74962,1.00001
0.03,0.0532543,1.0001,1.74919,0.749287,2.74914,1.00003
0.04,0.0698765,1.00017,1.74858,0.748723,2.74848,1.00005
0.05,0.0859425,1.00023,1.7478,0.747981,2.74767,1.00007
0.06,0.101506,1.00029,1.74686,0.747087,2.74669,1.00009
0.07,0.11661,1.00035,1.74577,0.746039,2.74555,1.00011
0.08,0.131277,1.0004,1.74454,0.744837,2.74427,1.00011
0.09,0.145581,1.00042,1.74315,0.743483,2.74285,1.00011
0.1,0.159199,1.00045,1.74163,0.74199,2.74131,1.00012
0.11,0.172923,1.00047,1.73997,0.740365,2.73966,1.00012
0.12,0.186222,1.00044,1.73818,0.738538,2.73794,1.00013
0.13,0.199193,1.0004,1.73625,0.736576,2.73606,1.00015
0.14,0.211783,1.0004,1.7342,0.734514,2.73402,1.00015
0.15,0.22416,1.0004,1.73202,0.732347,2.73183,1.00014
0.16,0.236014,1.00042,1.72972,0.730082,2.72948,1.00011
0.17,0.247495,1.00043,1.7273,0.727694,2.72701,1.00009
0.18,0.258762,1.00047,1.72477,0.725171,2.72445,1.00011
0.19,0.269868,1.00046,1.72213,0.722512,2.72184,1.00012
0.2,0.280737,1.00043,1.71938,0.719707,2.71916,1.00015
0.21,0.291223,1.00047,1.71652,0.716868,2.71629,1.00018
0.22,0.301352,1.00053,1.71356,0.713967,2.71326,1.00018
0.23,0.31116,1.0006,1.71049,0.71099,2.71012,1.00017
0.24,0.321009,1.0007,1.70733,0.707932,2.70687,1.00017
0.25,0.33061,1.00072,1.70408,0.704704,2.70365,1.00019
0.26,0.339763,1.00073,1.70073,0.701317,2.70033,1.00024
0.27,0.3487,1.00074,1.69728,0.697851,2.69686,1.00025
0.28,0.357206,1.00076,1.69375,0.694311,2.69329,1.00025
0.29,0.365852,1.00083,1.69014,0.69078,2.68961,1.00024
0.3,0.374387,1.00084,1.68644,0.687128,2.68594,1.00025
0.31,0.382395,1.00085,1.68266,0.683362,2.68215,1.00025
0.32,0.390324,1.00085,1.67879,0.679484,2.67827,1.00024
0.33,0.397933,1.00085,1.67485,0.675515,2.67434,1.00026
0.34,0.405492,1.00083,1.67084,0.671518,2.67039,1.00027
0.35,0.412709,1.00086,1.66675,0.667462,2.6663,1.00027
0.36,0.419743,1.0009,1.66259,0.663324,2.66205,1.00026
0.37,0.426734,1.00095,1.65836,0.659105,2.65776,1.00027
0.38,0.432835,1.00094,1.65406,0.65481,2.6535,1.00028
0.39,0.439122,1.00098,1.6497,0.650497,2.64912,1.00029
0.4,0.445582,1.00103,1.64528,0.646099,2.64467,1.00031
0.41,0.451852,1.00105,1.64079,0.641624,2.64018,1.00032
0.42,0.457767,1.00105,1.63624,0.637095,2.63565,1.00033
0.43,0.463469,1.00113,1.63164,0.632562,2.63097,1.00033
0.44,0.468931,1.0012,1.62698,0.627956,2.62627,1.00035
0.45,0.474628,1.00117,1.62226,0.623237,2.62161,1.00036
0.46,0.479866,1.00119,1.61749,0.618489,2.61681,1.00035
0.47,0.485189,1.00126,1.61266,0.613676,2.61193,1.00039
0.48,0.490366,1.00127,1.60779,0.608821,2.60707,1.0004
0.49,0.495193,1.00126,1.60286,0.603902,2.60214,1.00038
0.5,0.500073,1.00134,1.59788,0.598963,2.59709,1.0004
0.51,0.504866,1.00138,1.59286,0.593971,2.59204,1.00041
0.52,0.50933,1.00134,1.58779,0.588892,2.58702,1.00041
0.53,0.513673,1.0014,1.58267,0.583813,2.58187,1.00042
0.54,0.518271,1.00145,1.57751,0.578696,2.57669,1.00044
0.55,0.52198,1.00142,1.57231,0.573501,2.57153,1.00044
0.56,0.525962,1.00149,1.56708,0.568299,2.56623,1.00045
0.57,0.529955,1.00154,1.5618,0.563056,2.56091,1.00046
0.58,0.533587,1.00152,1.55648,0.557751,2.55563,1.00046
0.59,0.537196,1.00158,1.55113,0.552438,2.55023,1.00048
0.6,0.540794,1.00162,1.54574,0.547077,2.54482,1.00049
0.61,0.544261,1.0016,1.54031,0.541651,2.53943,1.00049
0.62,0.54748,1.00167,1.53486,0.536233,2.53391,1.00051
0.63,0.550739,1.00171,1.52937,0.530779,2.5284,1.00052
0.64,0.553661,1.00169,1.52385,0.525269,2.5229,1.0005
0.65,0.556737,1.00177,1.51829,0.519765,2.5173,1.00053
0.66,0.5597,1.0018,1.51271,0.514223,2.51171,1.00054
0.67,0.562267,1.0018,1.5071,0.508634,2.50611,1.00054
0.68,0.564718,1.00187,1.50147,0.503026,2.50042,1.00056
0.69,0.567467,1.00188,1.49581,0.497388,2.49477,1.00057
0.7,0.569702,1.00192,1.49012,0.491747,2.48907,1.00058
0.71,0.572128,1.00199,1.48441,0.486088,2.48331,1.0006
0.72,0.574057,1.00196,1.47868,0.480353,2.47763,1.0006
0.73,0.576202,1.00203,1.47293,0.474652,2.47181,1.00061
0.74,0.578317,1.00208,1.46716,0.468923,2.466,1.00062
0.75,0.580012,1.00205,1.46137,0.463122,2.46025,1.00061
0.76,0.581634,1.00212,1.45556,0.457363,2.45439,1.00064
0.77,0.583439,1.00214,1.44974,0.451568,2.44857,1.00064
0.78,0.585019,1.00214,1.4439,0.445726,2.44273,1.00064
0.79,0.586544,1.00221,1.43804,0.439907,2.43682,1.00066
0.8,0.587814,1.00219,1.43217,0.434046,2.431,1.00066
0.81,0.58921,1.00225,1.42628,0.42821,2.42507,1.00067
0.82,0.590333,1.0023,1.42038,0.422375,2.41914,1.00068
0.83,0.591433,1.00228,1.41448,0.416462,2.41327,1.00068
0.84,0.592389,1.00237,1.40856,0.410597,2.40728,1.00071
0.85,0.59343,1.0024,1.40263,0.404712,2.40134,1.00071
0.86,0.594043,1.00243,1.39669,0.398793,2.39539,1.00073
0.87,0.594911,1.00252,1.39075,0.392927,2.38938,1.00075
0.88,0.595443,1.00252,1.3848,0.387004,2.38346,1.00075
0.89,0.595925,1.0026,1.37884,0.381101,2.37745,1.00077
0.9,0.596334,1.00265,1.37288,0.37519,2.37146,1.00078
0.91,0.596279,1.00264,1.36692,0.369239,2.36553,1.00078
0.92,0.596585,1.00273,1.36095,0.36334,2.35951,1.00081
0.93,0.596639,1.00274,1.35499,0.357423,2.35357,1.00081
0.94,0.596471,1.00278,1.34902,0.351476,2.34757,1.00083
0.95,0.596449,1.00286,1.34306,0.345577,2.34154,1.00084
0.96,0.596004,1.00285,1.3371,0.339628,2.33561,1.00083
0.97,0.595706,1.00294,1.33114,0.333742,2.3296,1.00086
0.98,0.594874,1.00298,1.32518,0.327857,2.32364,1.00087
0.99,0.594105,1.003,1.31924,0.321931,2.3177,1.00088
1,0.593437,1.00309,1.3133,0.316057,2.31169,1.0009
1.01,0.59244,1.00309,1.30737,0.310171,2.3058,1.0009
1.02,0.591586,1.00317,1.30145,0.304312,2.29984,1.00092
1.03,0.590597,1.00325,1.29554,0.298489,2.29388,1.00094
1.04,0.589161,1.00325,1.28965,0.292615,2.28801,1.00093
1.05,0.587883,1.00335,1.28376,0.2868,2.28205,1.00097
1.06,0.586497,1.0034,1.27789,0.280985,2.27617,1.00098
1.07,0.584788,1.00344,1.27203,0.275169,2.27029,1.001
1.08,0.583275,1.00355,1.26619,0.269427,2.26439,1.00102
1.09,0.581412,1.00356,1.26037,0.263661,2.2586,1.00102
1.1,0.579393,1.00365,1.25457,0.257929,2.25274,1.00104
1.11,0.577534,1.00372,1.24878,0.252212,2.24691,1.00106
1.12,0.575343,1.00372,1.24302,0.246486,2.24118,1.00105
1.13,0.573175,1.00382,1.23728,0.240826,2.2354,1.00109
1.14,0.570665,1.00387,1.23156,0.235183,2.22967,1.0011
1.15,0.568195,1.0039,1.22586,0.229528,2.22396,1.00111
1.16,0.565556,1.00401,1.22019,0.223937,2.21821,1.00113
1.17,0.5628,1.00403,1.21455,0.218352,2.21259,1.00114
1.18,0.55981,1.00411,1.20894,0.212823,2.20693,1.00116
1.19,0.556795,1.00422,1.20336,0.207348,2.2013,1.00118
1.2,0.553585,1.00425,1.19781,0.201868,2.19577,1.00119
1.21,0.550383,1.00436,1.19229,0.196452,2.19019,1.00122
1.22,0.546872,1.00446,1.1868,0.191063,2.18466,1.00124
1.23,0.543274,1.0045,1.18135,0.185692,2.17922,1.00124
1.24,0.539539,1.00463,1.17594,0.180395,2.17374,1.00129
1.25,0.535652,1.00473,1.17056,0.175132,2.16833,1.00131
1.26,0.53135,1.00479,1.16523,0.169904,2.16297,1.00131
1.27,0.52713,1.00493,1.15993,0.164717,2.15761,1.00136
1.28,0.522849,1.00503,1.15468,0.159587,2.15233,1.00138
1.29,0.518079,1.00511,1.14948,0.154512,2.1471,1.00138
1.3,0.513484,1.00524,1.14432,0.149475,2.14189,1.00143
1.31,0.508612,1.00533,1.13921,0.14449,2.13676,1.00145
1.32,0.503205,1.00541,1.13415,0.139576,2.13168,1.00144
1.33,0.498095,1.00555,1.12915,0.134691,2.12661,1.00149
1.34,0.492577,1.00566,1.12419,0.129868,2.12164,1.00152
1.35,0.486859,1.00575,1.1193,0.125138,2.11672,1.00152
1.36,0.480992,1.0059,1.11446,0.12044,2.11182,1.00156
1.37,0.474982,1.00602,1.10968,0.115801,2.107,1.00159
1.38,0.4687,1.00613,1.10496,0.111255,2.10226,1.00161
1.39,0.462341,1.00629,1.10031,0.106774,2.09754,1.00164
1.4,0.455933,1.00646,1.09572,0.102364,2.09287,1.00168
1.41,0.449195,1.00658,1.09119,0.0980196,2.08833,1.0017
1.42,0.442046,1.00674,1.08673,0.093789,2.08382,1.00172
1.43,0.43492,1.00694,1.08235,0.0896045,2.07935,1.00178
1.44,0.427582,1.00709,1.07804,0.085502,2.07501,1.00181
1.45,0.419816,1.00726,1.0738,0.081518,2.07073,1.00183
1.46,0.411734,1.00747,1.06964,0.0776015,2.06649,1.00187
1.47,0.403715,1.00768,1.06557,0.0737574,2.06234,1.00193
1.48,0.395489,1.00785,1.06157,0.0699971,2.05831,1.00196
1.49,0.38681,1.00805,1.05766,0.0663726,2.05433,1.00198
1.5,0.3779,1.00828,1.05383,0.0628066,2.05042,1.00203
1.51,0.368957,1.00849,1.0501,0.0593291,2.04661,1.00208
1.52,0.359847,1.00868,1.04646,0.0559502,2.04294,1.00211
1.53,0.350325,1.00888,1.04291,0.0527057,2.03933,1.00213
1.54,0.340522,1.00912,1.03945,0.049556,2.0358,1.00218
1.55,0.330702,1.00936,1.0361,0.0464982,2.03236,1.00223
1.56,0.320956,1.00957,1.03284,0.0435481,2.02908,1.00226
1.57,0.310855,1.00979,1.02968,0.040742,2.02588,1.00229
1.58,0.300412,1.01005,1.02662,0.0380962,2.02275,1.0023
1.59,0.289741,1.01034,1.02367,0.035543,2.01972,1.00235
1.6,0.279084,1.01062,1.02083,0.0331048,2.01682,1.00239
1.61,0.268479,1.0109,1.01809,0.0308121,2.01406,1.00243
1.62,0.25766,1.01118,1.01546,0.0286203,2.01138,1.00246
1.63,0.246419,1.01147,1.01294,0.0265534,2.00878,1.00248
1.64,0.235049,1.01178,1.01053,0.0246278,2.00629,1.00251
1.65,0.223527,1.01211,1.00824,0.0228047,2.00394,1.00257
1.66,0.212109,1.01243,1.00606,0.0210976,2.00172,1.00262
1.67,0.200775,1.01276,1.00399,0.0195337,1.9996,1.00267
1.68,0.189486,1.01313,1.00204,0.018138,1.99756,1.0027
1.69,0.178094,1.01343,1.0002,0.016775,1.99564,1.00272
1.7,0.166486,1.01374,0.998482,0.0155658,1.99385,1.00273
1.71,0.154865,1.01404,0.996875,0.0144642,1.99222,1.00276
1.72,0.143312,1.01432,0.995383,0.0134617,1.99071,1.00278
1.73,0.131794,1.01456,0.994008,0.0124762,1.98932,1.00281
1.74,0.120414,1.0148,0.992746,0.0116055,1.98803,1.00284
1.75,0.109391,1.015,0.991597,0.0107801,1.98684,1.00285
1.76,0.0986452,1.01515,0.990557,0.00999025,1.98576,1.00285
1.77,0.0883509,1.01524,0.989622,0.00924077,1.98482,1.00285
1.78,0.0782439,1.01531,0.988789,0.0085507,1.98398,1.00284
1.79,0.0686129,1.01532,0.988054,0.00788386,1.98329,1.00284
1.8,0.059475,1.0153,0.987413,0.00726671,1.98267,1.00281
1.81,0.0508426,1.01521,0.986861,0.00667111,1.98219,1.00278
1.82,0.0426886,1.01508,0.986393,0.00608806,1.98178,1.00274
1.83,0.0350471,1.01492,0.986004,0.00553953,1.98145,1.00269
1.84,0.0279502,1.0147,0.985689,0.00500014,1.98123,1.00264
1.85,0.0214157,1.01445,0.985442,0.00448598,1.98109,1.00259
1.86,0.0154982,1.01419,0.985258,0.00398678,1.981,1.00254
1.87,0.0102159,1.01212,0.985129,-0,1.98096,1.00248
1.88,0.00558098,1.01205,0.98505,6.64075e-08,1.98099,1.00243
1.89,0.00161361,1.01196,0.985014,3.51448e-08,1.98104,1.00237
1.9,-0.00170324,1.01186,0.985015,1.1636e-08,1.98113,1.00231
1.91,-0.00441499,1.01173,0.985045,8.34359e-09,1.98125,1.00225
1.92,-0.00656222,1.01159,0.9851,4.85656e-09,1.9814,1.00218
1.93,-0.00817608,1.01143,0.985174,4.52177e-09,1.98158,1.00212
1.94,-0.00932329,1.01128,0.985261,4.71847e-09,1.98178,1.00206
1.95,-0.0100044,1.01111,0.985358,4.73176e-09,1.98199,1.00201
1.96,-0.0102746,1.01095,0.985459,4.84049e-09,1.9822,1.00196
1.97,-0.0102069,1.01081,0.985562,-0,1.98238,1.00191
1.98,-0.00983052,1.01068,0.985662,4.98462e-09,1.98254,1.00186
1.99,-0.0092002,1.01057,0.985757,-0,1.98269,1.00182
2,-0.00835262,1.01047,0.985844,5.11008e-09,1.98282,1.00179
2.01,-0.0073424,1.01038,0.985923,5.18936e-09,1.98294,1.00176
2.02,-0.00620232,1.01031,0.98599,-0,1.98304,1.00174
2.03,-0.00499089,1.01025,0.986046,5.25265e-09,1.98312,1.00173
2.04,-0.00377658,1.01021,0.986089,5.31135e-09,1.98318,1.00172
2.05,-0.00253894,1.01018,0.986121,5.38283e-09,1.98322,1.00171
2.06,-0.00133224,1.01017,0.98614,5.43684e-09,1.98325,1.00171
2.07,-0.000183944,1.01017,0.986147,5.47499e-09,1.98325,1.0017
2.08,0.000883655,1.01017,0.986143,5.50159e-09,1.98324,1.0017
