time,velocity,ratio,centerX,Xmax,Xmin,Ymax
0,0,1,8.5,7.5,9.5,1
0.01,0.0195423,0.999989,8.49991,7.49989,9.49993,1.00001
0.02,0.0384814,1,8.49964,7.49962,9.49964,1.00001
0.03,0.0568251,1.00001,8.49918,7.49916,9.49917,1.00002
0.04,0.0746651,1.00003,8.49854,7.49852,9.4985,1.00002
0.05,0.0919617,1.00005,8.49773,7.49771,9.49765,1.00002
0.06,0.108796,1.00007,8.49674,7.49672,9.49663,1.00003
0.07,0.125176,1.00009,8.49559,7.49557,9.49543,1.00003
0.08,0.141118,1.00012,8.49427,7.49426,9.49407,1.00002
0.09,0.156659,1.00014,8.4928,7.49279,9.49256,1.00002
0.1,0.171782,1.00016,8.49117,7.49118,9.49089,1.00002
0.11,0.186546,1.00022,8.4894,7.48943,9.48907,1.00004
0.12,0.200916,1.00027,8.48748,7.48754,9.48712,1.00006
0.13,0.214918,1.00032,8.48541,7.48552,9.48504,1.00008
0.14,0.228669,1.00034,8.48321,7.48337,9.48287,1.0001
0.15,0.24202,1.00036,8.48087,7.48108,9.48058,1.00011
0.16,0.254989,1.00038,8.4784,7.47866,9.47815,1.00012
0.17,0.267637,1.00041,8.4758,7.47612,9.47557,1.00014
0.18,0.279984,1.0005,8.47308,7.47347,9.47284,1.00018
0.19,0.292026,1.0006,8.47023,7.47072,9.46996,1.00023
0.2,0.303798,1.00073,8.46726,7.46787,9.46696,1.00027
0.21,0.31532,1.00085,8.46418,7.4649,9.46384,1.00032
0.22,0.32656,1.00098,8.46098,7.46182,9.46058,1.00036
0.23,0.337512,1.00115,8.45767,7.45865,9.45717,1.00041
0.24,0.348264,1.00139,8.45426,7.45539,9.45361,1.0005
0.25,0.358558,1.00163,8.45073,7.45205,9.44994,1.00057
0.26,0.368801,1.00187,8.44711,7.4486,9.44615,1.00064
0.27,0.378775,1.00211,8.44338,7.44503,9.44223,1.00071
0.28,0.388527,1.00243,8.43955,7.44137,9.43816,1.00082
0.29,0.398156,1.00275,8.43563,7.43763,9.43399,1.00093
0.3,0.407479,1.00308,8.43161,7.43381,9.42972,1.00103
0.31,0.41655,1.00344,8.4275,7.42992,9.42531,1.00112
0.32,0.425434,1.00389,8.4233,7.42598,9.42077,1.00127
0.33,0.434115,1.00433,8.41901,7.42197,9.41616,1.00141
0.34,0.442562,1.00478,8.41464,7.4179,9.41144,1.00154
0.35,0.450857,1.00529,8.41018,7.41374,9.4066,1.0017
0.36,0.458846,1.00583,8.40564,7.40952,9.40167,1.00188
0.37,0.466754,1.00639,8.40102,7.40527,9.39664,1.00205
0.38,0.47445,1.00698,8.39632,7.40094,9.39147,1.00222
0.39,0.481995,1.00764,8.39155,7.39655,9.38623,1.00243
0.4,0.489344,1.00831,8.3867,7.39213,9.38088,1.00264
0.41,0.496431,1.00902,8.38178,7.38767,9.37541,1.00283
0.42,0.503466,1.00977,8.37679,7.38311,9.36985,1.00307
0.43,0.510294,1.01053,8.37173,7.37846,9.36418,1.00331
0.44,0.516945,1.01129,8.3666,7.37373,9.35841,1.00354
0.45,0.523381,1.01208,8.3614,7.36898,9.35264,1.00381
0.46,0.529852,1.01292,8.35614,7.36422,9.34677,1.00408
0.47,0.536051,1.01377,8.35082,7.35942,9.34081,1.00433
0.48,0.542099,1.01468,8.34544,7.35458,9.33477,1.00463
0.49,0.547942,1.01562,8.33999,7.34967,9.32861,1.00493
0.5,0.553681,1.01658,8.33449,7.34473,9.32237,1.00521
0.51,0.559201,1.0176,8.32893,7.33975,9.31603,1.00554
0.52,0.564692,1.01867,8.32332,7.33472,9.30958,1.00586
0.53,0.570047,1.01974,8.31765,7.32965,9.30304,1.00617
0.54,0.575303,1.02092,8.31193,7.32456,9.29637,1.00653
0.55,0.580347,1.02206,8.30616,7.31937,9.28968,1.00688
0.56,0.585322,1.02319,8.30034,7.31413,9.2829,1.00721
0.57,0.590131,1.0244,8.29446,7.30885,9.27605,1.00761
0.58,0.59481,1.02563,8.28854,7.30355,9.26913,1.00798
0.59,0.599388,1.0269,8.28258,7.29824,9.26211,1.00834
0.6,0.603882,1.02824,8.27657,7.2929,9.25502,1.00876
0.61,0.608184,1.02958,8.27051,7.28752,9.24784,1.00915
0.62,0.612449,1.03098,8.26441,7.28213,9.24057,1.00956
0.63,0.616489,1.03245,8.25828,7.27671,9.2332,1.00999
0.64,0.620488,1.03387,8.2521,7.27126,9.22586,1.01039
0.65,0.624366,1.03535,8.24588,7.26582,9.21846,1.01084
0.66,0.628127,1.03686,8.23962,7.26035,9.21101,1.01128
0.67,0.631838,1.03835,8.23332,7.25479,9.20348,1.0117
0.68,0.63543,1.0399,8.22699,7.24917,9.19587,1.01219
0.69,0.638845,1.04146,8.22062,7.24351,9.18817,1.01264
0.7,0.642156,1.04309,8.21422,7.23791,9.1804,1.0131
0.71,0.645434,1.04482,8.20779,7.2323,9.17253,1.01359
0.72,0.648646,1.04652,8.20132,7.22665,9.1646,1.01405
0.73,0.651761,1.04829,8.19483,7.22098,9.15662,1.01456
0.74,0.654856,1.05009,8.1883,7.2153,9.14859,1.01506
0.75,0.657774,1.05189,8.18174,7.20958,9.14048,1.01554
0.76,0.66068,1.05376,8.17515,7.20385,9.13231,1.01607
0.77,0.66344,1.05563,8.16853,7.19809,9.12407,1.01656
0.78,0.665866,1.05753,8.16189,7.19226,9.11578,1.01709
0.79,0.668438,1.05945,8.15522,7.18639,9.10742,1.01762
0.8,0.670911,1.06136,8.14853,7.1805,9.09906,1.01814
0.81,0.673378,1.06335,8.14181,7.17463,9.09065,1.0187
0.82,0.675787,1.06533,8.13507,7.16876,9.0822,1.01922
0.83,0.678115,1.06738,8.1283,7.16285,9.07368,1.01979
0.84,0.680361,1.06946,8.12151,7.15695,9.0651,1.02034
0.85,0.682541,1.07157,8.1147,7.15103,9.05646,1.0209
0.86,0.684626,1.07374,8.10787,7.1451,9.04776,1.02148
0.87,0.686641,1.07591,8.10102,7.13918,9.03902,1.02203
0.88,0.688571,1.07815,8.09414,7.13321,9.03023,1.02263
0.89,0.690426,1.08034,8.08725,7.12718,9.0214,1.0232
0.9,0.692246,1.08256,8.08034,7.1211,9.01251,1.02378
0.91,0.694085,1.08484,8.07341,7.11505,9.00359,1.02438
0.92,0.695962,1.08714,8.06647,7.10902,8.9946,1.02495
0.93,0.697685,1.08956,8.0595,7.10297,8.98551,1.02557
0.94,0.699214,1.09192,8.05252,7.0969,8.97645,1.02616
0.95,0.700755,1.09429,8.04552,7.09082,8.96741,1.02676
0.96,0.702282,1.09667,8.03851,7.08472,8.95834,1.02737
0.97,0.70372,1.09905,8.03148,7.07862,8.94923,1.02795
0.98,0.705057,1.10151,8.02444,7.07249,8.94008,1.02859
0.99,0.706376,1.10393,8.01739,7.0663,8.93088,1.02918
1,0.707682,1.10641,8.01032,7.06008,8.9216,1.0298
1.01,0.708981,1.1089,8.00324,7.05386,8.91232,1.03042
1.02,0.710211,1.1114,7.99615,7.04766,8.903,1.03101
1.03,0.711361,1.11397,7.98904,7.04145,8.89366,1.03165
1.04,0.712503,1.11651,7.98193,7.03523,8.88428,1.03224
1.05,0.713568,1.11913,7.9748,7.02901,8.87486,1.03287
1.06,0.714585,1.12175,7.96766,7.02278,8.86542,1.03349
1.07,0.715432,1.12442,7.96051,7.01657,8.85594,1.03411
1.08,0.71638,1.12711,7.95336,7.01036,8.84647,1.03475
1.09,0.717267,1.12973,7.94619,7.00408,8.83699,1.03534
1.1,0.718238,1.1324,7.93902,6.99772,8.82748,1.03601
1.11,0.719108,1.13505,7.93183,6.99138,8.81795,1.03662
1.12,0.719995,1.1378,7.92464,6.98509,8.80838,1.03727
1.13,0.720821,1.14058,7.91744,6.9788,8.79876,1.0379
1.14,0.721582,1.14335,7.91023,6.97251,8.78913,1.03852
1.15,0.722311,1.14619,7.90301,6.96621,8.77949,1.03918
1.16,0.723048,1.14898,7.89579,6.9599,8.76983,1.03979
1.17,0.723697,1.15186,7.88855,6.95359,8.76015,1.04045
1.18,0.724297,1.15471,7.88132,6.94726,8.75044,1.04108
1.19,0.724892,1.15755,7.87407,6.94087,8.74072,1.04171
1.2,0.725506,1.16043,7.86682,6.93446,8.73098,1.04236
1.21,0.726087,1.16325,7.85957,6.92807,8.72126,1.04296
1.22,0.726631,1.16618,7.85231,6.9217,8.71153,1.04363
1.23,0.727165,1.16906,7.84504,6.91531,8.7018,1.04425
1.24,0.727662,1.17199,7.83777,6.90892,8.69205,1.0449
1.25,0.728127,1.17493,7.83049,6.90254,8.68228,1.04554
1.26,0.728542,1.17787,7.82321,6.89615,8.67249,1.04615
1.27,0.728937,1.18089,7.81592,6.88979,8.66269,1.04681
1.28,0.729353,1.18386,7.80863,6.88339,8.65287,1.04741
1.29,0.729779,1.18685,7.80134,6.87694,8.64305,1.04805
1.3,0.730149,1.1898,7.79404,6.87044,8.6332,1.04867
1.31,0.730545,1.19282,7.78674,6.86399,8.62335,1.0493
1.32,0.730841,1.19589,7.77944,6.85757,8.61348,1.04994
1.33,0.731133,1.19892,7.77213,6.85113,8.60361,1.05055
1.34,0.731447,1.20202,7.76482,6.84469,8.59375,1.0512
1.35,0.731684,1.20506,7.75751,6.83825,8.58389,1.0518
1.36,0.731971,1.20818,7.75019,6.8318,8.57403,1.05246
1.37,0.732064,1.21127,7.74287,6.82535,8.56416,1.05308
1.38,0.732346,1.21436,7.73555,6.81885,8.55428,1.05372
1.39,0.732605,1.21746,7.72823,6.81232,8.54438,1.05436
1.4,0.732879,1.22053,7.7209,6.80578,8.53449,1.05497
1.41,0.733122,1.22368,7.71358,6.79927,8.5246,1.05562
1.42,0.733325,1.22679,7.70625,6.79277,8.5147,1.05622
1.43,0.733463,1.22995,7.69891,6.78625,8.50481,1.05687
1.44,0.733632,1.23311,7.69158,6.77974,8.49491,1.05749
1.45,0.733746,1.23628,7.68424,6.77323,8.48499,1.05811
1.46,0.733889,1.23949,7.67691,6.76674,8.47508,1.05874
1.47,0.734056,1.24265,7.66957,6.76025,8.4652,1.05933
1.48,0.734241,1.24585,7.66223,6.7537,8.45532,1.05998
1.49,0.734335,1.24895,7.65489,6.7471,8.44545,1.06058
1.5,0.734466,1.25212,7.64755,6.74054,8.43558,1.0612
1.51,0.734588,1.25532,7.64021,6.73401,8.42571,1.06181
1.52,0.734778,1.25851,7.63286,6.72748,8.41583,1.06241
1.53,0.734865,1.26173,7.62552,6.72094,8.40597,1.06303
1.54,0.734926,1.2649,7.61817,6.7144,8.39611,1.06359
1.55,0.735029,1.26813,7.61082,6.70785,8.38625,1.06422
1.56,0.735117,1.27134,7.60347,6.70131,8.37639,1.0648
1.57,0.735188,1.27455,7.59612,6.69472,8.36654,1.06541
1.58,0.735252,1.27773,7.58877,6.6881,8.35669,1.066
1.59,0.735352,1.28089,7.58142,6.68146,8.34685,1.06659
1.6,0.735434,1.28411,7.57407,6.67486,8.33702,1.0672
1.61,0.735491,1.28728,7.56672,6.66826,8.3272,1.06776
1.62,0.735537,1.29054,7.55936,6.66166,8.31738,1.06839
1.63,0.735591,1.29374,7.55201,6.65506,8.30758,1.06896
1.64,0.735671,1.29697,7.54466,6.64846,8.2978,1.06957
1.65,0.73568,1.30018,7.5373,6.64188,8.28804,1.07016
1.66,0.735751,1.30337,7.52995,6.6353,8.27833,1.07074
1.67,0.735792,1.30652,7.52259,6.62865,8.26865,1.07134
1.68,0.73579,1.30953,7.51524,6.62196,8.25903,1.07189
1.69,0.735844,1.31263,7.50788,6.6153,8.24945,1.07251
1.7,0.735826,1.31567,7.50052,6.60868,8.23991,1.07308
1.71,0.735852,1.3187,7.49317,6.60204,8.23042,1.07367
1.72,0.735859,1.3217,7.48581,6.5954,8.22096,1.07425
1.73,0.735931,1.32466,7.47845,6.58876,8.21155,1.07482
1.74,0.735919,1.32763,7.47109,6.58212,8.20217,1.07541
1.75,0.735936,1.3305,7.46374,6.57548,8.19283,1.07595
1.76,0.735962,1.33341,7.45638,6.56879,8.18354,1.07656
1.77,0.736023,1.33619,7.44902,6.56207,8.17428,1.07711
1.78,0.736036,1.33899,7.44167,6.55535,8.16504,1.07768
1.79,0.736046,1.34178,7.4343,6.54866,8.15585,1.07825
1.8,0.736056,1.34452,7.42695,6.54198,8.14668,1.07878
1.81,0.736072,1.34727,7.41959,6.53527,8.13756,1.07936
1.82,0.736047,1.34995,7.41223,6.52859,8.12846,1.07987
1.83,0.735981,1.35269,7.40487,6.5219,8.1194,1.08046
1.84,0.736025,1.35537,7.39751,6.51524,8.11036,1.08099
1.85,0.735941,1.35807,7.39016,6.50857,8.10135,1.08155
1.86,0.735911,1.36067,7.3828,6.50183,8.09236,1.0821
1.87,0.73587,1.36319,7.37544,6.49503,8.08342,1.08264
1.88,0.73585,1.36578,7.36809,6.4883,8.07449,1.0832
1.89,0.735771,1.36832,7.36073,6.4816,8.06561,1.08372
1.9,0.735666,1.37092,7.35338,6.47489,8.05674,1.08429
1.91,0.735574,1.37342,7.34602,6.46819,8.04791,1.08481
1.92,0.735529,1.37598,7.33867,6.46148,8.03909,1.08538
1.93,0.735487,1.37847,7.33131,6.45477,8.03029,1.0859
1.94,0.735456,1.38095,7.32396,6.44806,8.02154,1.08644
1.95,0.735448,1.38339,7.31661,6.4413,8.01279,1.08699
1.96,0.735412,1.38574,7.30926,6.43452,8.00408,1.0875
1.97,0.73534,1.38816,7.30191,6.42776,7.99538,1.08806
1.98,0.735207,1.39053,7.29455,6.42102,7.9867,1.08856
1.99,0.735127,1.39292,7.2872,6.41426,7.97805,1.08911
2,0.735003,1.39525,7.27985,6.40752,7.96943,1.08963
2.01,0.735008,1.39759,7.27251,6.40078,7.96082,1.09015
2.02,0.734932,1.39994,7.26516,6.39404,7.95223,1.09068
2.03,0.734955,1.40222,7.25781,6.38733,7.94368,1.09117
2.04,0.734962,1.40454,7.25047,6.38057,7.93512,1.09172
2.05,0.734936,1.40673,7.24312,6.37374,7.92657,1.09221
2.06,0.734868,1.40894,7.23577,6.36691,7.91806,1.09274
2.07,0.734789,1.41116,7.22842,6.36014,7.90957,1.09324
2.08,0.734715,1.4134,7.22108,6.35338,7.90107,1.09375
2.09,0.734696,1.41562,7.21373,6.34661,7.89259,1.09426
2.1,0.734677,1.41776,7.20639,6.33986,7.88415,1.09472
2.11,0.734662,1.41996,7.19904,6.33308,7.87572,1.09525
2.12,0.734596,1.4221,7.1917,6.32632,7.86729,1.09571
2.13,0.734535,1.42427,7.18436,6.31951,7.85886,1.09623
2.14,0.734482,1.42631,7.17701,6.31267,7.85049,1.0967
2.15,0.734398,1.42836,7.16967,6.30581,7.84213,1.0972
2.16,0.734329,1.43043,7.16233,6.299,7.83377,1.09769
2.17,0.734263,1.43249,7.15499,6.29219,7.82541,1.09816
2.18,0.7342,1.43455,7.14765,6.28537,7.81709,1.09867
2.19,0.734274,1.43656,7.14031,6.27857,7.80879,1.09912
2.2,0.734249,1.43865,7.13297,6.27177,7.80048,1.09964
2.21,0.734185,1.44068,7.12563,6.26499,7.79218,1.10009
2.22,0.734166,1.44277,7.11829,6.2582,7.78387,1.1006
2.23,0.734123,1.44471,7.11095,6.25134,7.77562,1.10107
2.24,0.734022,1.44664,7.10361,6.24447,7.76737,1.10155
2.25,0.733942,1.44863,7.09627,6.23764,7.75913,1.10204
2.26,0.733868,1.4506,7.08893,6.23084,7.75088,1.10248
2.27,0.733865,1.45263,7.0816,6.22402,7.74263,1.10299
2.28,0.733818,1.45456,7.07426,6.21722,7.73442,1.10343
2.29,0.733744,1.45653,7.06693,6.2104,7.72623,1.10392
2.3,0.733695,1.45846,7.05959,6.20359,7.71804,1.10438
2.31,0.733665,1.46037,7.05226,6.19676,7.70987,1.10484
2.32,0.73364,1.46226,7.04492,6.18989,7.70169,1.10532
2.33,0.7335,1.46405,7.03759,6.183,7.69353,1.10575
2.34,0.733463,1.46593,7.03026,6.17614,7.6854,1.10624
2.35,0.733426,1.46774,7.02292,6.16929,7.67728,1.10667
2.36,0.733398,1.46962,7.01559,6.16243,7.66914,1.10715
2.37,0.733386,1.47146,7.00826,6.15559,7.66101,1.10759
2.38,0.733354,1.47331,7.00093,6.14874,7.65288,1.10803
2.39,0.733326,1.47517,6.9936,6.14191,7.64478,1.10849
2.4,0.733332,1.47696,6.98627,6.13509,7.6367,1.10891
2.41,0.73324,1.47877,6.97893,6.1282,7.62862,1.10939
2.42,0.733155,1.48042,6.9716,6.12126,7.62054,1.10979
2.43,0.733071,1.48219,6.96427,6.11436,7.61247,1.11024
2.44,0.732979,1.48395,6.95695,6.1075,7.6044,1.11066
2.45,0.732933,1.4857,6.94962,6.10063,7.59634,1.11109
2.46,0.732924,1.48743,6.94229,6.09377,7.58832,1.11152
2.47,0.732892,1.48911,6.93496,6.0869,7.58031,1.11193
2.48,0.732834,1.49084,6.92764,6.08004,7.5723,1.11237
2.49,0.732841,1.4925,6.92031,6.07317,7.56429,1.11275
2.5,0.732804,1.49421,6.91299,6.06625,7.55628,1.11321
2.51,0.732787,1.4958,6.90566,6.0593,7.54826,1.1136
2.52,0.732769,1.49751,6.89833,6.05238,7.54025,1.11405
2.53,0.732598,1.49913,6.89101,6.04548,7.53227,1.11445
2.54,0.732695,1.50078,6.88368,6.03858,7.52431,1.11487
2.55,0.732693,1.50242,6.87636,6.03169,7.51634,1.11529
2.56,0.732653,1.50406,6.86903,6.0248,7.50838,1.11569
2.57,0.73257,1.50574,6.86171,6.01792,7.50041,1.11612
2.58,0.732519,1.50738,6.85439,6.01107,7.49244,1.1165
2.59,0.732383,1.50906,6.84706,6.00415,7.48446,1.11694
2.6,0.732426,1.51055,6.83974,5.99718,7.47652,1.11731
2.61,0.732465,1.51213,6.83242,5.99025,7.46862,1.11774
2.62,0.732394,1.51369,6.8251,5.98336,7.46072,1.11813
2.63,0.732371,1.51526,6.81777,5.97645,7.45281,1.11853
2.64,0.732335,1.51684,6.81045,5.96956,7.44491,1.11894
2.65,0.732331,1.51839,6.80313,5.96266,7.437,1.11931
2.66,0.732181,1.52,6.79581,5.95576,7.42909,1.11973
2.67,0.732208,1.52154,6.78849,5.94886,7.42116,1.12008
2.68,0.732166,1.52312,6.78117,5.94192,7.41325,1.12051
2.69,0.732175,1.52455,6.77385,5.93495,7.40538,1.12087
2.7,0.732197,1.52603,6.76653,5.92799,7.39752,1.12127
2.71,0.732208,1.52752,6.75921,5.92107,7.38965,1.12165
2.72,0.732187,1.529,6.75189,5.91413,7.38179,1.12203
2.73,0.732195,1.53052,6.74457,5.90721,7.37392,1.12242
2.74,0.732126,1.53198,6.73725,5.90029,7.36606,1.12276
2.75,0.732097,1.53353,6.72993,5.89337,7.35819,1.12317
2.76,0.732055,1.53499,6.72261,5.88648,7.35034,1.1235
2.77,0.731952,1.53648,6.7153,5.87953,7.34249,1.1239
2.78,0.731945,1.53779,6.70798,5.87253,7.33469,1.12425
2.79,0.731882,1.53916,6.70066,5.86554,7.32688,1.12462
2.8,0.731891,1.54058,6.69334,5.85861,7.31907,1.12498
2.81,0.731879,1.54197,6.68603,5.85166,7.31126,1.12532
2.82,0.731908,1.54342,6.67871,5.84473,7.30345,1.1257
2.83,0.731904,1.54479,6.67139,5.83779,7.29563,1.12602
2.84,0.73195,1.54625,6.66408,5.83085,7.28781,1.12641
2.85,0.731934,1.54763,6.65676,5.82392,7.28,1.12674
2.86,0.731957,1.54902,6.64944,5.81693,7.27219,1.12711
2.87,0.731998,1.55033,6.64212,5.80991,7.26438,1.12745
2.88,0.732035,1.55165,6.63481,5.80291,7.2566,1.12781
2.89,0.732053,1.55299,6.62749,5.79594,7.24882,1.12816
2.9,0.732028,1.55432,6.62017,5.78896,7.24104,1.1285
2.91,0.73196,1.5557,6.61285,5.78199,7.23325,1.12886
2.92,0.731947,1.55701,6.60553,5.77503,7.22548,1.12918
2.93,0.731921,1.5584,6.59822,5.76808,7.21772,1.12956
2.94,0.731872,1.55971,6.5909,5.76115,7.20997,1.12986
2.95,0.731898,1.56108,6.58358,5.75416,7.2022,1.13025
2.96,0.731865,1.5623,6.57627,5.74713,7.19444,1.13057
2.97,0.731876,1.56364,6.56895,5.74013,7.18668,1.13094
2.98,0.731871,1.56496,6.56163,5.73318,7.17893,1.13127
2.99,0.73192,1.56628,6.55431,5.72621,7.17118,1.13162
3,0.731845,1.5676,6.547,5.71925,7.16345,1.13196
3.01,0.731886,1.56889,6.53968,5.71229,7.15572,1.13229
3.02,0.73192,1.57022,6.53237,5.70532,7.14799,1.13265
3.03,0.731924,1.57148,6.52505,5.69836,7.14026,1.13296
3.04,0.731964,1.57278,6.51773,5.69135,7.13253,1.13333
3.05,0.731995,1.57397,6.51041,5.68431,7.12479,1.13363
3.06,0.732012,1.57527,6.5031,5.6773,7.11706,1.134
3.07,0.731992,1.57653,6.49578,5.67031,7.10931,1.13432
3.08,0.731952,1.5778,6.48846,5.66331,7.10159,1.13466
3.09,0.731901,1.57905,6.48114,5.65631,7.09388,1.13499
3.1,0.731871,1.58026,6.47383,5.64933,7.0862,1.13531
3.11,0.73188,1.58151,6.46651,5.64235,7.07852,1.13566
3.12,0.731873,1.5827,6.45919,5.63538,7.07084,1.13595
3.13,0.731892,1.58393,6.45187,5.62836,7.06315,1.13631
3.14,0.731966,1.58501,6.44456,5.62128,7.05546,1.1366
3.15,0.73198,1.58623,6.43724,5.61424,7.04776,1.13695
3.16,0.731996,1.58742,6.42992,5.60724,7.04007,1.13725
3.17,0.732007,1.58863,6.4226,5.60023,7.03238,1.13758
3.18,0.732007,1.58985,6.41529,5.59323,7.02469,1.1379
3.19,0.731968,1.59103,6.40797,5.58623,7.017,1.1382
3.2,0.731943,1.59226,6.40065,5.57922,7.00931,1.13854
3.21,0.731979,1.59342,6.39333,5.57221,7.00161,1.13882
3.22,0.732,1.59461,6.38602,5.56515,6.99392,1.13916
3.23,0.731951,1.59567,6.3787,5.55808,6.98625,1.13944
3.24,0.731886,1.59684,6.37138,5.55104,6.97859,1.13978
3.25,0.73191,1.59794,6.36406,5.54401,6.97094,1.14008
3.26,0.731843,1.59907,6.35675,5.53697,6.96329,1.14039
3.27,0.731887,1.6002,6.34943,5.52995,6.95564,1.1407
3.28,0.731846,1.60131,6.34211,5.52293,6.94799,1.14099
3.29,0.731829,1.60248,6.3348,5.51593,6.94034,1.1413
3.3,0.7318,1.6036,6.32748,5.50893,6.93269,1.14157
3.31,0.731825,1.60473,6.32016,5.50187,6.92503,1.14189
3.32,0.731797,1.60571,6.31285,5.49476,6.91736,1.14214
3.33,0.731763,1.60685,6.30553,5.4877,6.90971,1.14248
3.34,0.731802,1.60794,6.29822,5.48068,6.90205,1.14274
3.35,0.731818,1.60911,6.2909,5.47365,6.8944,1.14306
3.36,0.731816,1.61023,6.28359,5.46664,6.88673,1.14333
3.37,0.731841,1.61137,6.27627,5.45962,6.87909,1.14365
3.38,0.731849,1.61248,6.26895,5.45261,6.87145,1.14393
3.39,0.731867,1.61357,6.26164,5.44557,6.86383,1.14423
3.4,0.731856,1.61463,6.25432,5.4385,6.85619,1.14452
3.41,0.73184,1.61562,6.247,5.43141,6.84858,1.1448
3.42,0.73145,1.6167,6.23969,5.42437,6.84097,1.14511
3.43,0.731427,1.61771,6.23238,5.41732,6.83337,1.14537
3.44,0.731447,1.61881,6.22507,5.41028,6.82575,1.14569
3.45,0.731365,1.61981,6.21775,5.40325,6.81815,1.14593
3.46,0.731531,1.62095,6.21044,5.39621,6.81052,1.14626
3.47,0.731561,1.622,6.20313,5.3892,6.80291,1.14652
3.48,0.731604,1.62312,6.19581,5.38216,6.79527,1.14683
3.49,0.731656,1.62409,6.1885,5.37506,6.78766,1.1471
3.5,0.731681,1.62508,6.18118,5.36794,6.78004,1.14738
3.51,0.731727,1.62611,6.17387,5.36087,6.77242,1.14767
3.52,0.731769,1.62715,6.16655,5.35382,6.7648,1.14794
3.53,0.731782,1.62823,6.15924,5.34677,6.75718,1.14824
3.54,0.731707,1.62923,6.15192,5.33973,6.74957,1.14848
3.55,0.731711,1.63029,6.14461,5.33267,6.74198,1.14879
3.56,0.731693,1.63128,6.13729,5.32563,6.73438,1.14903
3.57,0.731662,1.6323,6.12998,5.31854,6.7268,1.14934
3.58,0.731716,1.6332,6.12266,5.31143,6.71921,1.14959
3.59,0.731747,1.63413,6.11535,5.30431,6.71164,1.14988
3.6,0.731793,1.6351,6.10803,5.29723,6.70406,1.15015
3.61,0.731809,1.63605,6.10072,5.29015,6.69648,1.15041
3.62,0.731777,1.63705,6.0934,5.28307,6.68889,1.15069
3.63,0.731721,1.63799,6.08609,5.276,6.6813,1.15093
3.64,0.73173,1.63904,6.07877,5.26895,6.6737,1.15123
3.65,0.731662,1.64,6.07146,5.26191,6.66611,1.15145
3.66,0.731682,1.64104,6.06414,5.25483,6.65852,1.15175
3.67,0.731594,1.6419,6.05683,5.24769,6.65093,1.15199
3.68,0.731615,1.64286,6.04951,5.24057,6.64334,1.15227
3.69,0.731694,1.64383,6.0422,5.23351,6.63574,1.15252
3.7,0.731696,1.64483,6.03488,5.22644,6.62815,1.15278
3.71,0.731637,1.64584,6.02757,5.21938,6.62055,1.15305
3.72,0.731611,1.6468,6.02025,5.21232,6.61295,1.15328
3.73,0.731597,1.64782,6.01294,5.20526,6.60537,1.15356
3.74,0.731363,1.64871,6.00563,5.1982,6.59781,1.15378
