time,velocity,ratio,centerX,Xmax,Xmin,Ymax
0,0,1,16,15,17,1
0.01,0.0195504,0.999988,15.9999,14.9999,16.9999,1.00001
0.02,0.038501,0.999999,15.9996,14.9996,16.9996,1.00001
0.03,0.0568466,1.00001,15.9992,14.9992,16.9992,1.00002
0.04,0.0747074,1.00003,15.9985,14.9985,16.9985,1.00002
0.05,0.0920077,1.00005,15.9977,14.9977,16.9976,1.00002
0.06,0.108853,1.00007,15.9967,14.9967,16.9966,1.00002
0.07,0.125233,1.00009,15.9956,14.9956,16.9954,1.00003
0.08,0.141185,1.00011,15.9943,14.9942,16.9941,1.00002
0.09,0.156711,1.00013,15.9928,14.9928,16.9926,1.00002
0.1,0.171834,1.00016,15.9912,14.9912,16.9909,1.00002
0.11,0.186595,1.00021,15.9894,14.9894,16.9891,1.00004
0.12,0.200964,1.00026,15.9875,14.9875,16.9871,1.00006
0.13,0.214959,1.0003,15.9854,14.9855,16.9851,1.00008
0.14,0.228704,1.00032,15.9832,14.9834,16.9829,1.0001
0.15,0.24202,1.00033,15.9809,14.9811,16.9806,1.00011
0.16,0.255035,1.00035,15.9784,14.9786,16.9782,1.00013
0.17,0.26767,1.00039,15.9758,14.9761,16.9756,1.00014
0.18,0.279986,1.00048,15.9731,14.9735,16.9729,1.00019
0.19,0.292091,1.00059,15.9702,14.9707,16.97,1.00023
0.2,0.303885,1.00071,15.9672,14.9679,16.967,1.00028
0.21,0.315404,1.00083,15.9642,14.9649,16.9639,1.00032
0.22,0.326634,1.00096,15.961,14.9618,16.9606,1.00036
0.23,0.337579,1.00114,15.9577,14.9586,16.9572,1.00042
0.24,0.348323,1.00139,15.9542,14.9554,16.9536,1.00051
0.25,0.358587,1.00163,15.9507,14.952,16.9499,1.00058
0.26,0.368823,1.00187,15.9471,14.9486,16.9462,1.00065
0.27,0.37882,1.00211,15.9434,14.945,16.9422,1.00072
0.28,0.388572,1.00244,15.9395,14.9414,16.9382,1.00083
0.29,0.398198,1.00276,15.9356,14.9376,16.934,1.00094
0.3,0.407528,1.0031,15.9316,14.9338,16.9297,1.00104
0.31,0.416592,1.00348,15.9275,14.9299,16.9252,1.00113
0.32,0.425475,1.00394,15.9233,14.926,16.9207,1.00128
0.33,0.434159,1.00439,15.919,14.922,16.9161,1.00142
0.34,0.442602,1.00484,15.9146,14.9179,16.9114,1.00155
0.35,0.450896,1.00534,15.9102,14.9137,16.9065,1.00171
0.36,0.458903,1.00588,15.9056,14.9095,16.9016,1.00189
0.37,0.466793,1.00644,15.901,14.9053,16.8966,1.00206
0.38,0.474509,1.00702,15.8963,14.9009,16.8914,1.00222
0.39,0.482045,1.00767,15.8915,14.8965,16.8862,1.00244
0.4,0.489383,1.00834,15.8867,14.8921,16.8808,1.00265
0.41,0.496511,1.00905,15.8818,14.8876,16.8753,1.00284
0.42,0.503531,1.00979,15.8768,14.8831,16.8698,1.00308
0.43,0.510346,1.01055,15.8717,14.8784,16.8641,1.00332
0.44,0.517,1.01131,15.8666,14.8737,16.8583,1.00354
0.45,0.523445,1.01211,15.8614,14.869,16.8526,1.00381
0.46,0.529933,1.01293,15.8561,14.8642,16.8467,1.00408
0.47,0.536151,1.01378,15.8508,14.8594,16.8408,1.00433
0.48,0.542208,1.01467,15.8454,14.8545,16.8347,1.00462
0.49,0.548043,1.0156,15.84,14.8496,16.8286,1.00492
0.5,0.553814,1.01655,15.8345,14.8447,16.8224,1.0052
0.51,0.559333,1.01757,15.8289,14.8397,16.816,1.00552
0.52,0.564821,1.01862,15.8233,14.8347,16.8096,1.00585
0.53,0.570192,1.01968,15.8176,14.8296,16.8031,1.00616
0.54,0.575443,1.02084,15.8119,14.8245,16.7964,1.00651
0.55,0.580504,1.02197,15.8061,14.8193,16.7897,1.00686
0.56,0.585487,1.02309,15.8003,14.814,16.783,1.00719
0.57,0.590338,1.0243,15.7944,14.8088,16.7761,1.00758
0.58,0.59502,1.02551,15.7885,14.8034,16.7692,1.00795
0.59,0.5996,1.02677,15.7825,14.7981,16.7622,1.00832
0.6,0.60409,1.02809,15.7765,14.7928,16.7551,1.00873
0.61,0.608396,1.02942,15.7705,14.7874,16.7479,1.00912
0.62,0.612623,1.03079,15.7644,14.782,16.7407,1.00952
0.63,0.616776,1.03223,15.7582,14.7766,16.7334,1.00995
0.64,0.620765,1.03363,15.752,14.7711,16.7261,1.01035
0.65,0.624659,1.03512,15.7458,14.7657,16.7187,1.0108
0.66,0.628459,1.03662,15.7396,14.7602,16.7112,1.01124
0.67,0.632125,1.0381,15.7333,14.7546,16.7037,1.01166
0.68,0.635743,1.03964,15.7269,14.749,16.6961,1.01214
0.69,0.639153,1.04119,15.7205,14.7433,16.6884,1.01259
0.7,0.642453,1.04281,15.7141,14.7377,16.6806,1.01305
0.71,0.645764,1.04452,15.7077,14.7321,16.6727,1.01354
0.72,0.648986,1.0462,15.7012,14.7264,16.6648,1.01399
0.73,0.652105,1.04796,15.6947,14.7207,16.6569,1.0145
0.74,0.655069,1.04973,15.6882,14.715,16.6488,1.01499
0.75,0.658043,1.05151,15.6816,14.7093,16.6408,1.01547
0.76,0.660915,1.05336,15.6751,14.7036,16.6326,1.01599
0.77,0.663715,1.0552,15.6684,14.6978,16.6244,1.01648
0.78,0.666272,1.05709,15.6618,14.6919,16.6161,1.01701
0.79,0.668841,1.05899,15.6551,14.6861,16.6078,1.01753
0.8,0.671316,1.06088,15.6484,14.6802,16.5994,1.01805
0.81,0.673824,1.06283,15.6417,14.6743,16.5911,1.0186
0.82,0.676246,1.06476,15.6349,14.6684,16.5827,1.01911
0.83,0.678607,1.06678,15.6282,14.6625,16.5742,1.01968
0.84,0.680892,1.0688,15.6214,14.6566,16.5657,1.02023
0.85,0.683114,1.07087,15.6146,14.6506,16.5571,1.02078
0.86,0.685257,1.07299,15.6077,14.6447,16.5484,1.02135
0.87,0.687295,1.07511,15.6009,14.6387,16.5397,1.02188
0.88,0.689244,1.0773,15.594,14.6327,16.531,1.02248
0.89,0.691141,1.07944,15.5871,14.6267,16.5222,1.02305
0.9,0.69324,1.0816,15.5802,14.6206,16.5134,1.02362
0.91,0.695059,1.08382,15.5732,14.6145,16.5045,1.02421
0.92,0.696821,1.08605,15.5663,14.6085,16.4956,1.02477
0.93,0.698697,1.08837,15.5593,14.6024,16.4866,1.02538
0.94,0.700377,1.09066,15.5523,14.5963,16.4776,1.02596
0.95,0.70195,1.09296,15.5453,14.5902,16.4687,1.02656
0.96,0.70352,1.09527,15.5383,14.5841,16.4597,1.02716
0.97,0.705059,1.09759,15.5312,14.5779,16.4506,1.02773
0.98,0.70644,1.09996,15.5242,14.5718,16.4416,1.02835
0.99,0.707787,1.1023,15.5171,14.5655,16.4324,1.02894
1,0.709162,1.1047,15.51,14.5593,16.4232,1.02955
1.01,0.710556,1.10712,15.5029,14.5531,16.414,1.03016
1.02,0.711788,1.10954,15.4958,14.5468,16.4048,1.03074
1.03,0.713018,1.11202,15.4887,14.5406,16.3955,1.03137
1.04,0.71424,1.11447,15.4816,14.5343,16.3862,1.03195
1.05,0.715389,1.117,15.4744,14.5281,16.3769,1.03258
1.06,0.71643,1.11952,15.4673,14.5218,16.3676,1.03317
1.07,0.717452,1.12211,15.4601,14.5156,16.3582,1.03379
1.08,0.71844,1.12469,15.4529,14.5093,16.3488,1.03441
1.09,0.719471,1.12721,15.4457,14.503,16.3394,1.035
1.1,0.720384,1.12976,15.4385,14.4966,16.33,1.03564
1.11,0.721313,1.1323,15.4313,14.4902,16.3206,1.03624
1.12,0.722233,1.13495,15.4241,14.4839,16.3111,1.03688
1.13,0.723111,1.13759,15.4169,14.4776,16.3016,1.03749
1.14,0.723912,1.14026,15.4097,14.4713,16.2921,1.03811
1.15,0.724687,1.14297,15.4024,14.4649,16.2826,1.03875
1.16,0.725429,1.14562,15.3952,14.4586,16.273,1.03934
1.17,0.726131,1.14838,15.3879,14.4522,16.2635,1.03999
1.18,0.726794,1.15107,15.3807,14.4459,16.2539,1.0406
1.19,0.727466,1.15379,15.3734,14.4394,16.2443,1.04124
1.2,0.728116,1.1565,15.3661,14.433,16.2347,1.04186
1.21,0.728751,1.15922,15.3588,14.4266,16.2251,1.04247
1.22,0.729309,1.162,15.3515,14.4201,16.2155,1.04311
1.23,0.729963,1.16471,15.3443,14.4137,16.2059,1.04371
1.24,0.730502,1.16751,15.337,14.4073,16.1963,1.04436
1.25,0.730999,1.17028,15.3296,14.4008,16.1867,1.04497
1.26,0.731498,1.17309,15.3223,14.3944,16.177,1.04559
1.27,0.73195,1.17594,15.315,14.388,16.1674,1.04622
1.28,0.732419,1.17873,15.3077,14.3815,16.1577,1.04681
1.29,0.732903,1.18154,15.3004,14.375,16.148,1.04745
1.3,0.733349,1.18429,15.293,14.3685,16.1384,1.04804
1.31,0.733743,1.18714,15.2857,14.362,16.1287,1.04867
1.32,0.734172,1.18999,15.2784,14.3555,16.119,1.04927
1.33,0.734606,1.19287,15.271,14.349,16.1093,1.04989
1.34,0.734994,1.19575,15.2637,14.3425,16.0996,1.05051
1.35,0.735269,1.1986,15.2563,14.336,16.0899,1.05111
1.36,0.735608,1.2015,15.249,14.3295,16.0802,1.05174
1.37,0.73576,1.20435,15.2416,14.323,16.0705,1.05233
1.38,0.736108,1.20725,15.2343,14.3164,16.0608,1.05298
1.39,0.73647,1.21009,15.2269,14.3098,16.0511,1.05358
1.4,0.736778,1.21299,15.2196,14.3032,16.0414,1.0542
1.41,0.73708,1.21589,15.2122,14.2967,16.0317,1.05482
1.42,0.737342,1.21877,15.2048,14.2901,16.022,1.05541
1.43,0.737562,1.2217,15.1974,14.2835,16.0123,1.05604
1.44,0.737776,1.22458,15.1901,14.2769,16.0026,1.05662
1.45,0.73799,1.22755,15.1827,14.2704,15.9929,1.05726
1.46,0.73818,1.23049,15.1753,14.2638,15.9832,1.05785
1.47,0.738376,1.23343,15.1679,14.2572,15.9735,1.05845
1.48,0.73859,1.23633,15.1606,14.2506,15.9638,1.05906
1.49,0.738741,1.23918,15.1532,14.2439,15.9542,1.05964
1.5,0.738934,1.24213,15.1458,14.2373,15.9445,1.06026
1.51,0.73909,1.24504,15.1384,14.2307,15.9348,1.06082
1.52,0.739145,1.24802,15.131,14.2241,15.9251,1.06145
1.53,0.739284,1.25096,15.1236,14.2175,15.9155,1.06202
1.54,0.739502,1.2539,15.1162,14.2109,15.9058,1.06262
1.55,0.739643,1.25684,15.1088,14.2043,15.8962,1.0632
1.56,0.739814,1.25975,15.1014,14.1977,15.8865,1.06376
1.57,0.739913,1.26267,15.094,14.191,15.8769,1.06436
1.58,0.740059,1.26551,15.0866,14.1843,15.8672,1.0649
1.59,0.740178,1.26846,15.0792,14.1776,15.8576,1.06551
1.6,0.740319,1.27135,15.0718,14.171,15.848,1.06606
1.61,0.7405,1.27428,15.0644,14.1643,15.8384,1.06665
1.62,0.740613,1.2772,15.057,14.1576,15.8288,1.06722
1.63,0.740729,1.28012,15.0496,14.151,15.8192,1.06779
1.64,0.740843,1.28306,15.0422,14.1443,15.8096,1.06838
1.65,0.740942,1.28598,15.0348,14.1376,15.8001,1.06892
1.66,0.741047,1.28892,15.0274,14.1309,15.7905,1.06952
1.67,0.74112,1.29174,15.02,14.1242,15.781,1.07006
1.68,0.741141,1.29462,15.0126,14.1174,15.7714,1.07065
1.69,0.741219,1.29751,15.0052,14.1107,15.7619,1.07121
1.7,0.741261,1.30041,14.9978,14.104,15.7524,1.07177
1.71,0.741299,1.30331,14.9904,14.0973,15.7429,1.07234
1.72,0.741349,1.30618,14.9829,14.0906,15.7334,1.07288
1.73,0.741406,1.30909,14.9755,14.0839,15.7239,1.07347
1.74,0.741466,1.31192,14.9681,14.0772,15.7145,1.07399
1.75,0.741575,1.31481,14.9607,14.0704,15.705,1.07457
1.76,0.741643,1.31759,14.9533,14.0637,15.6956,1.07511
1.77,0.741754,1.32037,14.9459,14.0569,15.6862,1.07567
1.78,0.741799,1.32314,14.9385,14.0501,15.6769,1.07622
1.79,0.741924,1.32588,14.931,14.0433,15.6675,1.07674
1.8,0.74197,1.32862,14.9236,14.0366,15.6583,1.07731
1.81,0.741998,1.3313,14.9162,14.0298,15.649,1.07781
1.82,0.742094,1.33403,14.9088,14.023,15.6398,1.07838
1.83,0.742102,1.3367,14.9014,14.0163,15.6306,1.07889
1.84,0.742121,1.33939,14.894,14.0096,15.6214,1.07943
1.85,0.74208,1.34199,14.8865,14.0028,15.6122,1.07995
1.86,0.742119,1.34451,14.8791,13.9959,15.6031,1.08047
1.87,0.742095,1.34708,14.8717,13.9891,15.594,1.081
1.88,0.742077,1.34963,14.8643,13.9823,15.5849,1.0815
1.89,0.742078,1.35222,14.8569,13.9755,15.5759,1.08205
1.9,0.742093,1.35472,14.8494,13.9687,15.5669,1.08253
1.91,0.742136,1.3573,14.842,13.9619,15.5579,1.08309
1.92,0.742183,1.35979,14.8346,13.9552,15.5489,1.08358
1.93,0.74219,1.36231,14.8272,13.9484,15.54,1.08412
1.94,0.742196,1.36474,14.8198,13.9415,15.531,1.08463
1.95,0.742314,1.36715,14.8123,13.9347,15.5221,1.08513
1.96,0.742355,1.36958,14.8049,13.9278,15.5132,1.08566
1.97,0.742321,1.37196,14.7975,13.921,15.5044,1.08614
1.98,0.742279,1.37438,14.7901,13.9142,15.4955,1.08668
1.99,0.742256,1.37673,14.7827,13.9074,15.4867,1.08715
2,0.742153,1.37914,14.7752,13.9005,15.4779,1.08769
2.01,0.742121,1.38149,14.7678,13.8937,15.4691,1.08818
2.02,0.742166,1.38388,14.7604,13.8869,15.4603,1.08868
2.03,0.742192,1.38618,14.753,13.8801,15.4516,1.08919
2.04,0.742197,1.3884,14.7456,13.8732,15.4429,1.08967
2.05,0.742195,1.39069,14.7381,13.8663,15.4342,1.09018
2.06,0.742159,1.3929,14.7307,13.8595,15.4255,1.09063
2.07,0.742137,1.39522,14.7233,13.8526,15.4168,1.09116
2.08,0.742175,1.39744,14.7159,13.8458,15.4081,1.09163
2.09,0.742204,1.39969,14.7085,13.839,15.3995,1.09213
2.1,0.742254,1.40189,14.701,13.8321,15.3909,1.09261
2.11,0.742255,1.4041,14.6936,13.8253,15.3822,1.09308
2.12,0.742229,1.40626,14.6862,13.8184,15.3736,1.09357
2.13,0.742185,1.40833,14.6788,13.8114,15.3651,1.09401
2.14,0.742122,1.41046,14.6714,13.8045,15.3565,1.09451
2.15,0.742062,1.41253,14.6639,13.7976,15.3479,1.09494
2.16,0.742067,1.41465,14.6565,13.7907,15.3394,1.09543
2.17,0.742038,1.41671,14.6491,13.7838,15.3309,1.09587
2.18,0.742062,1.41881,14.6417,13.777,15.3224,1.09635
2.19,0.742079,1.42088,14.6343,13.7701,15.3139,1.0968
2.2,0.742082,1.42296,14.6268,13.7632,15.3054,1.09726
2.21,0.742074,1.42502,14.6194,13.7563,15.297,1.09772
2.22,0.742063,1.42699,14.612,13.7494,15.2885,1.09816
2.23,0.741958,1.429,14.6046,13.7424,15.2801,1.09864
2.24,0.741912,1.43096,14.5972,13.7355,15.2716,1.09906
2.25,0.741934,1.43303,14.5898,13.7286,15.2632,1.09955
2.26,0.741901,1.43501,14.5823,13.7217,15.2548,1.09998
2.27,0.741896,1.43706,14.5749,13.7149,15.2464,1.10045
2.28,0.741891,1.43903,14.5675,13.708,15.238,1.10089
2.29,0.741841,1.44102,14.5601,13.7011,15.2296,1.10134
2.3,0.741848,1.44296,14.5527,13.6942,15.2213,1.1018
2.31,0.741802,1.44483,14.5453,13.6872,15.2129,1.10222
2.32,0.741678,1.44675,14.5378,13.6802,15.2046,1.10269
2.33,0.741668,1.44861,14.5304,13.6733,15.1963,1.10309
2.34,0.741716,1.45054,14.523,13.6664,15.188,1.10357
2.35,0.741747,1.4524,14.5156,13.6594,15.1797,1.10398
2.36,0.741782,1.45431,14.5082,13.6525,15.1714,1.10444
2.37,0.741785,1.45619,14.5008,13.6456,15.1631,1.10486
2.38,0.741881,1.45808,14.4933,13.6387,15.1548,1.10529
2.39,0.741875,1.45994,14.4859,13.6317,15.1465,1.10573
2.4,0.741859,1.46168,14.4785,13.6247,15.1382,1.10613
2.41,0.741814,1.4635,14.4711,13.6177,15.13,1.10659
2.42,0.741728,1.46528,14.4637,13.6108,15.1217,1.10698
2.43,0.741698,1.46714,14.4563,13.6039,15.1135,1.10743
2.44,0.741649,1.46892,14.4489,13.5969,15.1053,1.10783
2.45,0.741599,1.47071,14.4414,13.5899,15.097,1.10825
2.46,0.741602,1.47247,14.434,13.583,15.0888,1.10866
2.47,0.741623,1.47421,14.4266,13.576,15.0807,1.10906
2.48,0.741596,1.47596,14.4192,13.569,15.0725,1.10949
2.49,0.741587,1.47759,14.4118,13.562,15.0643,1.10985
2.5,0.74159,1.47932,14.4044,13.555,15.0561,1.11029
2.51,0.741594,1.48097,14.397,13.548,15.0479,1.11065
2.52,0.741594,1.4827,14.3895,13.541,15.0398,1.11108
2.53,0.741629,1.48435,14.3821,13.534,15.0316,1.11145
2.54,0.741695,1.48606,14.3747,13.5271,15.0235,1.11186
2.55,0.74169,1.48774,14.3673,13.5201,15.0153,1.11224
2.56,0.741645,1.48945,14.3599,13.5131,15.0072,1.11263
2.57,0.741587,1.49113,14.3525,13.5062,14.999,1.11303
2.58,0.741543,1.49272,14.3451,13.4991,14.9909,1.1134
2.59,0.741355,1.49433,14.3376,13.4921,14.9828,1.1138
2.6,0.741328,1.49592,14.3302,13.4851,14.9747,1.11416
2.61,0.741216,1.49759,14.3228,13.4781,14.9666,1.11458
2.62,0.74122,1.49916,14.3154,13.4711,14.9585,1.11492
2.63,0.741238,1.50085,14.308,13.4641,14.9504,1.11534
2.64,0.741252,1.50243,14.3006,13.4571,14.9423,1.11569
2.65,0.741197,1.50409,14.2932,13.4502,14.9342,1.11609
2.66,0.741212,1.50566,14.2858,13.4431,14.9261,1.11646
2.67,0.74124,1.5072,14.2784,13.4361,14.9181,1.11684
2.68,0.741242,1.50875,14.2709,13.429,14.91,1.11721
2.69,0.741259,1.5103,14.2635,13.422,14.902,1.11757
2.7,0.741319,1.51187,14.2561,13.415,14.8939,1.11796
2.71,0.741342,1.51337,14.2487,13.408,14.8859,1.11829
2.72,0.741414,1.51496,14.2413,13.401,14.8778,1.11869
2.73,0.741412,1.51647,14.2339,13.394,14.8698,1.11902
2.74,0.74138,1.51808,14.2265,13.387,14.8618,1.11941
2.75,0.741329,1.51956,14.2191,13.38,14.8537,1.11975
2.76,0.741326,1.52099,14.2117,13.3729,14.8457,1.12012
2.77,0.741238,1.52242,14.2042,13.3658,14.8377,1.12046
2.78,0.741268,1.52389,14.1968,13.3588,14.8297,1.12081
2.79,0.741293,1.52537,14.1894,13.3517,14.8218,1.12117
2.8,0.74134,1.52681,14.182,13.3447,14.8138,1.12149
2.81,0.741349,1.52831,14.1746,13.3377,14.8058,1.12186
2.82,0.741356,1.52971,14.1672,13.3306,14.7978,1.12216
2.83,0.741362,1.53122,14.1598,13.3236,14.7898,1.12254
2.84,0.741395,1.53259,14.1524,13.3165,14.7818,1.12285
2.85,0.741406,1.53399,14.145,13.3094,14.7739,1.12321
2.86,0.741426,1.53534,14.1375,13.3023,14.7659,1.12353
2.87,0.741427,1.53674,14.1301,13.2953,14.7579,1.12387
2.88,0.74143,1.53812,14.1227,13.2882,14.75,1.1242
2.89,0.74142,1.53949,14.1153,13.2811,14.742,1.12452
2.9,0.741373,1.5409,14.1079,13.2741,14.7341,1.12486
2.91,0.741308,1.54227,14.1005,13.267,14.7261,1.12516
2.92,0.741298,1.5437,14.0931,13.26,14.7182,1.1255
2.93,0.74128,1.54498,14.0857,13.2529,14.7103,1.12579
2.94,0.741273,1.54629,14.0782,13.2457,14.7023,1.12615
2.95,0.741322,1.54756,14.0708,13.2386,14.6944,1.12644
2.96,0.741375,1.54895,14.0634,13.2316,14.6865,1.12678
2.97,0.741409,1.55026,14.056,13.2245,14.6786,1.12708
2.98,0.741392,1.55162,14.0486,13.2175,14.6707,1.12741
2.99,0.741405,1.55295,14.0412,13.2104,14.6628,1.12772
3,0.741447,1.55428,14.0338,13.2034,14.6549,1.12803
3.01,0.74149,1.55561,14.0264,13.1963,14.647,1.12835
3.02,0.741384,1.55686,14.019,13.1892,14.6391,1.12865
3.03,0.741376,1.55814,14.0115,13.182,14.6312,1.12898
3.04,0.741359,1.55937,14.0041,13.1749,14.6233,1.12926
3.05,0.741387,1.56071,13.9967,13.1678,14.6154,1.1296
3.06,0.741408,1.56194,13.9893,13.1607,14.6075,1.12987
3.07,0.741415,1.56329,13.9819,13.1537,14.5996,1.13022
3.08,0.741416,1.56452,13.9745,13.1466,14.5917,1.13049
3.09,0.741507,1.56586,13.9671,13.1395,14.5839,1.13083
3.1,0.741527,1.56708,13.9597,13.1324,14.576,1.13112
3.11,0.741554,1.56829,13.9522,13.1253,14.5682,1.13144
3.12,0.741595,1.56944,13.9448,13.1181,14.5603,1.13173
3.13,0.74164,1.57066,13.9374,13.111,14.5525,1.13204
3.14,0.741684,1.57191,13.93,13.1039,14.5446,1.13234
3.15,0.741721,1.57312,13.9226,13.0968,14.5368,1.13263
3.16,0.741764,1.57438,13.9152,13.0897,14.5289,1.13294
3.17,0.741832,1.57556,13.9078,13.0826,14.5211,1.13321
3.18,0.74184,1.57684,13.9003,13.0755,14.5132,1.13354
3.19,0.741786,1.57796,13.8929,13.0683,14.5054,1.13379
3.2,0.741845,1.57917,13.8855,13.0612,14.4975,1.13413
3.21,0.74182,1.58026,13.8781,13.054,14.4897,1.13439
3.22,0.741796,1.58148,13.8707,13.0469,14.4819,1.13471
3.23,0.741909,1.58263,13.8633,13.0397,14.474,1.13498
3.24,0.741897,1.58381,13.8558,13.0326,14.4662,1.13528
3.25,0.741896,1.58496,13.8484,13.0255,14.4584,1.13556
3.26,0.741914,1.58611,13.841,13.0184,14.4506,1.13584
3.27,0.741922,1.58732,13.8336,13.0113,14.4428,1.13613
3.28,0.741896,1.58841,13.8262,13.0041,14.435,1.13639
3.29,0.742008,1.58951,13.8188,12.997,14.4272,1.1367
3.3,0.742036,1.59056,13.8113,12.9898,14.4194,1.13693
3.31,0.741956,1.59177,13.8039,12.9827,14.4116,1.13725
3.32,0.742018,1.59286,13.7965,12.9755,14.4038,1.13749
3.33,0.74187,1.59405,13.7891,12.9684,14.396,1.1378
3.34,0.74187,1.59515,13.7817,12.9613,14.3882,1.13805
3.35,0.741947,1.59631,13.7742,12.9542,14.3804,1.13834
3.36,0.741965,1.59743,13.7668,12.9471,14.3726,1.1386
3.37,0.741986,1.5985,13.7594,12.9399,14.3648,1.13887
3.38,0.742075,1.59956,13.752,12.9327,14.357,1.13915
3.39,0.742114,1.60061,13.7446,12.9255,14.3492,1.13939
3.4,0.742124,1.60171,13.7372,12.9184,14.3414,1.13968
3.41,0.742185,1.60272,13.7297,12.9112,14.3337,1.1399
3.42,0.742229,1.60383,13.7223,12.9041,14.3259,1.1402
3.43,0.742139,1.60482,13.7149,12.8969,14.3182,1.14041
3.44,0.742179,1.60596,13.7075,12.8898,14.3104,1.14072
3.45,0.742191,1.60696,13.7001,12.8826,14.3026,1.14093
3.46,0.74224,1.60798,13.6926,12.8754,14.2949,1.14121
3.47,0.742297,1.60891,13.6852,12.8682,14.2871,1.14144
3.48,0.742337,1.60994,13.6778,12.861,14.2794,1.1417
3.49,0.742392,1.61096,13.6704,12.8539,14.2716,1.14193
3.5,0.742447,1.61199,13.6629,12.8467,14.2638,1.14218
3.51,0.742482,1.61302,13.6555,12.8396,14.2561,1.14242
3.52,0.742538,1.61403,13.6481,12.8324,14.2483,1.14266
3.53,0.742578,1.61507,13.6407,12.8253,14.2406,1.14292
3.54,0.742588,1.61603,13.6333,12.8181,14.2328,1.14315
3.55,0.742617,1.617,13.6258,12.8108,14.2251,1.14341
3.56,0.74264,1.61792,13.6184,12.8036,14.2173,1.14362
3.57,0.74268,1.61893,13.611,12.7964,14.2096,1.14389
3.58,0.742742,1.61984,13.6036,12.7892,14.2018,1.14409
3.59,0.742793,1.62087,13.5961,12.782,14.1941,1.14437
3.6,0.742824,1.62179,13.5887,12.7749,14.1863,1.14457
3.61,0.742893,1.62285,13.5813,12.7677,14.1786,1.14485
3.62,0.742879,1.62382,13.5738,12.7605,14.1709,1.14506
3.63,0.742905,1.62481,13.5664,12.7533,14.1631,1.14533
3.64,0.742818,1.62565,13.559,12.746,14.1554,1.14554
3.65,0.742819,1.6266,13.5516,12.7388,14.1477,1.1458
3.66,0.742874,1.62755,13.5441,12.7317,14.1399,1.14602
3.67,0.742885,1.62852,13.5367,12.7245,14.1322,1.14626
3.68,0.742854,1.6295,13.5293,12.7173,14.1245,1.1465
3.69,0.742875,1.63045,13.5219,12.7101,14.1168,1.14673
3.7,0.742894,1.63144,13.5144,12.7029,14.109,1.14697
3.71,0.742912,1.63235,13.507,12.6957,14.1013,1.14718
3.72,0.742965,1.63327,13.4996,12.6885,14.0936,1.14744
3.73,0.742948,1.63409,13.4922,12.6813,14.0859,1.14763
3.74,0.742985,1.63504,13.4847,12.6741,14.0782,1.14789
