time,velocity,ratio,centerX,Xmax,Xmin,Ymax
0,0,1,21,20,22,1
0.01,0.0196105,0.999999,20.9999,19.9999,21.9999,0.999997
0.02,0.0386616,1.00005,20.9996,19.9996,21.9996,1.00001
0.03,0.0570838,1.00008,20.9991,19.9992,21.9991,1.00003
0.04,0.074891,1.00012,20.9985,19.9986,21.9984,1.00004
0.05,0.0921137,1.00015,20.9976,19.9977,21.9975,1.00005
0.06,0.108781,1.00015,20.9966,19.9967,21.9965,1.00005
0.07,0.124972,1.00015,20.9955,19.9956,21.9954,1.00004
0.08,0.140741,1.00011,20.9941,19.9942,21.994,1.00002
0.09,0.156215,1.00006,20.9927,19.9927,21.9926,0.999984
0.1,0.171739,1.00002,20.991,19.9911,21.991,0.999967
0.11,0.18699,0.999961,20.9892,19.9892,21.9893,0.999983
0.12,0.201816,0.999983,20.9873,19.9873,21.9873,1.00001
0.13,0.216466,1.00005,20.9852,19.9852,21.9852,1.00003
0.14,0.230666,1.00015,20.983,19.9831,21.9829,1.00004
0.15,0.244349,1.00021,20.9806,19.9808,21.9804,1.00005
0.16,0.257468,1.00021,20.9781,19.9782,21.9779,1.00005
0.17,0.270353,1.00023,20.9754,19.9756,21.9753,1.00006
0.18,0.283371,1.00019,20.9727,19.9728,21.9726,1.00006
0.19,0.296318,1.00015,20.9698,19.9699,21.9697,1.00007
0.2,0.308668,1.00012,20.9667,19.9668,21.9667,1.00007
0.21,0.32037,1.00015,20.9636,19.9637,21.9635,1.00003
0.22,0.331683,1.00015,20.9603,19.9605,21.9602,1.00001
0.23,0.343256,1.0001,20.957,19.957,21.9569,1.00003
0.24,0.354879,1.00011,20.9535,19.9535,21.9535,1.00008
0.25,0.365653,1.00018,20.9499,19.95,21.9498,1.00007
0.26,0.3759,1.00026,20.9462,19.9464,21.9459,1.00003
0.27,0.386049,1.00031,20.9424,19.9426,21.9421,1.00006
0.28,0.396775,1.0002,20.9384,19.9386,21.9384,1.00011
0.29,0.406743,1.00024,20.9344,19.9346,21.9343,1.00011
0.3,0.416135,1.00026,20.9303,19.9305,21.9301,1.00005
0.31,0.425737,1.00031,20.9261,19.9264,21.9259,1.00004
0.32,0.43552,1.00017,20.9218,19.9219,21.9218,1.00009
0.33,0.44448,1.00015,20.9174,19.9175,21.9173,1.00009
0.34,0.453155,1.00025,20.9129,19.9131,21.9127,1.00006
0.35,0.462148,1.0003,20.9083,19.9086,21.9081,1.00005
0.36,0.470907,1.00024,20.9037,19.9038,21.9036,1.0001
0.37,0.478938,1.00021,20.8989,19.899,21.8988,1.0001
0.38,0.487331,1.00037,20.8941,19.8944,21.8938,1.00009
0.39,0.495754,1.00036,20.8892,19.8895,21.8889,1.00009
0.4,0.503251,1.00031,20.8842,19.8844,21.884,1.0001
0.41,0.510997,1.00032,20.8791,19.8793,21.8789,1.00012
0.42,0.518995,1.00032,20.874,19.8742,21.8738,1.00011
0.43,0.526167,1.00034,20.8687,19.869,21.8685,1.00007
0.44,0.533581,1.00032,20.8634,19.8637,21.8632,1.0001
0.45,0.541131,1.00027,20.8581,19.8583,21.858,1.00011
0.46,0.547888,1.0003,20.8526,19.8528,21.8524,1.00008
0.47,0.554858,1.00036,20.8471,19.8473,21.8468,1.0001
0.48,0.561925,1.00035,20.8415,19.8418,21.8413,1.00011
0.49,0.568159,1.00036,20.8359,19.8361,21.8356,1.00011
0.5,0.574956,1.00039,20.8302,19.8304,21.8299,1.00013
0.51,0.581447,1.00041,20.8244,19.8247,21.8242,1.00012
0.52,0.587464,1.00043,20.8185,19.8188,21.8182,1.00012
0.53,0.594084,1.00039,20.8126,19.8129,21.8124,1.00013
0.54,0.599945,1.00038,20.8067,19.807,21.8065,1.00013
0.55,0.605907,1.00041,20.8006,19.8009,21.8003,1.00013
0.56,0.612015,1.00038,20.7945,19.7948,21.7943,1.00012
0.57,0.617484,1.00039,20.7884,19.7887,21.7882,1.00012
0.58,0.623603,1.00038,20.7822,19.7824,21.7819,1.00013
0.59,0.629026,1.0004,20.7759,19.7762,21.7757,1.00012
0.6,0.634455,1.00045,20.7696,19.7699,21.7693,1.00014
0.61,0.640099,1.00042,20.7632,19.7635,21.763,1.00014
0.62,0.644963,1.00047,20.7568,19.7571,21.7565,1.00015
0.63,0.65054,1.00045,20.7503,19.7507,21.75,1.00014
0.64,0.655422,1.00048,20.7438,19.7442,21.7435,1.00014
0.65,0.66051,1.0005,20.7372,19.7376,21.7369,1.00015
0.66,0.665542,1.00043,20.7306,19.7309,21.7303,1.00015
0.67,0.670243,1.00049,20.7239,19.7243,21.7236,1.00015
0.68,0.67542,1.00042,20.7172,19.7175,21.7169,1.00014
0.69,0.679872,1.00047,20.7104,19.7108,21.7101,1.00014
0.7,0.684897,1.00046,20.7036,19.7039,21.7033,1.00015
0.71,0.689349,1.00046,20.6967,19.6971,21.6964,1.00014
0.72,0.693881,1.00053,20.6898,19.6902,21.6894,1.00016
0.73,0.698418,1.00046,20.6828,19.6832,21.6826,1.00015
0.74,0.702708,1.00055,20.6758,19.6762,21.6755,1.00017
0.75,0.70724,1.00047,20.6688,19.6691,21.6685,1.00016
0.76,0.711374,1.00054,20.6617,19.6621,21.6613,1.00017
0.77,0.715997,1.0005,20.6546,19.6549,21.6542,1.00016
0.78,0.719849,1.00052,20.6474,19.6478,21.647,1.00016
0.79,0.724285,1.00054,20.6402,19.6405,21.6398,1.00017
0.8,0.728032,1.0005,20.6329,19.6333,21.6326,1.00015
0.81,0.732315,1.00056,20.6256,19.626,21.6252,1.00017
0.82,0.735877,1.00049,20.6183,19.6186,21.618,1.00015
0.83,0.739968,1.00058,20.6109,19.6113,21.6105,1.00018
0.84,0.743657,1.00051,20.6035,19.6039,21.6032,1.00016
0.85,0.747526,1.00059,20.596,19.5964,21.5956,1.00018
0.86,0.751239,1.00053,20.5885,19.5889,21.5882,1.00017
0.87,0.754909,1.00059,20.581,19.5814,21.5806,1.00019
0.88,0.758573,1.00055,20.5734,19.5738,21.5731,1.00018
0.89,0.762119,1.00059,20.5658,19.5662,21.5654,1.00019
0.9,0.765731,1.00055,20.5582,19.5586,21.5578,1.00018
0.91,0.769111,1.00059,20.5505,19.5509,21.5501,1.00019
0.92,0.772662,1.00055,20.5428,19.5432,21.5425,1.00018
0.93,0.775857,1.00059,20.5351,19.5355,21.5346,1.00019
0.94,0.779355,1.00056,20.5273,19.5277,21.5269,1.00019
0.95,0.782459,1.00061,20.5195,19.5199,21.5191,1.00019
0.96,0.78586,1.00058,20.5116,19.512,21.5113,1.00019
0.97,0.788852,1.00062,20.5038,19.5042,21.5033,1.0002
0.98,0.792238,1.0006,20.4959,19.4963,21.4955,1.0002
0.99,0.795141,1.00064,20.4879,19.4884,21.4875,1.0002
1,0.798248,1.0006,20.4799,19.4804,21.4796,1.0002
1.01,0.801157,1.00064,20.472,19.4724,21.4715,1.0002
1.02,0.804172,1.0006,20.4639,19.4644,21.4635,1.0002
1.03,0.807068,1.00064,20.4559,19.4563,21.4554,1.0002
1.04,0.809994,1.00059,20.4478,19.4482,21.4474,1.00019
1.05,0.812824,1.00065,20.4397,19.4401,21.4392,1.0002
1.06,0.815588,1.0006,20.4315,19.432,21.4312,1.00019
1.07,0.818463,1.00067,20.4234,19.4238,21.4229,1.00021
1.08,0.821034,1.00062,20.4152,19.4156,21.4148,1.00019
1.09,0.823886,1.00069,20.4069,19.4074,21.4065,1.00021
1.1,0.826305,1.00065,20.3987,19.3992,21.3983,1.0002
1.11,0.829217,1.0007,20.3904,19.3909,21.3899,1.00022
1.12,0.831499,1.00067,20.3821,19.3826,21.3817,1.00021
1.13,0.83434,1.0007,20.3738,19.3743,21.3733,1.00022
1.14,0.836631,1.00067,20.3654,19.3659,21.365,1.00021
1.15,0.83938,1.00067,20.357,19.3575,21.3566,1.00022
1.16,0.841752,1.00067,20.3486,19.3491,21.3482,1.00021
1.17,0.844385,1.00066,20.3402,19.3407,21.3398,1.00022
1.18,0.846648,1.00068,20.3318,19.3322,21.3313,1.00022
1.19,0.849082,1.00066,20.3233,19.3237,21.3229,1.00022
1.2,0.85139,1.00071,20.3148,19.3153,21.3143,1.00022
1.21,0.853601,1.00066,20.3062,19.3067,21.3058,1.00022
1.22,0.856086,1.00074,20.2977,19.2982,21.2972,1.00023
1.23,0.858095,1.00069,20.2891,19.2896,21.2887,1.00021
1.24,0.86076,1.00074,20.2805,19.281,21.28,1.00023
1.25,0.862697,1.0007,20.2719,19.2724,21.2715,1.00022
1.26,0.865094,1.00072,20.2633,19.2638,21.2628,1.00023
1.27,0.866988,1.00071,20.2546,19.2551,21.2542,1.00022
1.28,0.869254,1.0007,20.2459,19.2464,21.2455,1.00023
1.29,0.871257,1.00072,20.2372,19.2378,21.2368,1.00023
1.3,0.873349,1.00068,20.2285,19.229,21.2281,1.00023
1.31,0.87556,1.00075,20.2198,19.2203,21.2193,1.00024
1.32,0.877367,1.00071,20.211,19.2115,21.2105,1.00022
1.33,0.879642,1.00077,20.2022,19.2028,21.2017,1.00024
1.34,0.881348,1.00074,20.1934,19.1939,21.1929,1.00023
1.35,0.883564,1.00075,20.1846,19.1851,21.1841,1.00024
1.36,0.885336,1.00075,20.1758,19.1763,21.1753,1.00023
1.37,0.887335,1.00071,20.1669,19.1674,21.1664,1.00024
1.38,0.889331,1.00075,20.158,19.1585,21.1575,1.00024
1.39,0.891179,1.0007,20.1491,19.1496,21.1486,1.00023
1.4,0.893327,1.00078,20.1402,19.1407,21.1397,1.00024
1.41,0.894878,1.00075,20.1312,19.1318,21.1307,1.00023
1.42,0.89693,1.00077,20.1223,19.1228,21.1218,1.00024
1.43,0.898562,1.00077,20.1133,19.1139,21.1128,1.00024
1.44,0.900422,1.00074,20.1043,19.1048,21.1038,1.00024
1.45,0.902332,1.00078,20.0953,19.0958,21.0948,1.00025
1.46,0.903906,1.00072,20.0863,19.0868,21.0858,1.00023
1.47,0.90573,1.00079,20.0772,19.0778,21.0767,1.00025
1.48,0.907155,1.00076,20.0682,19.0687,21.0676,1.00024
1.49,0.90905,1.00077,20.0591,19.0596,21.0586,1.00025
1.5,0.910532,1.00079,20.05,19.0505,21.0495,1.00025
1.51,0.912183,1.00074,20.0409,19.0414,21.0404,1.00024
1.52,0.914066,1.00081,20.0317,19.0323,21.0312,1.00025
1.53,0.915424,1.00077,20.0226,19.0231,21.0221,1.00024
1.54,0.917331,1.00081,20.0134,19.014,21.0129,1.00026
1.55,0.918658,1.0008,20.0042,19.0048,21.0037,1.00025
1.56,0.920402,1.00078,19.995,18.9956,20.9945,1.00025
1.57,0.922032,1.00082,19.9858,18.9864,20.9853,1.00026
1.58,0.92333,1.00076,19.9766,18.9771,20.9761,1.00025
1.59,0.925011,1.00083,19.9674,18.9679,20.9668,1.00026
1.6,0.926285,1.0008,19.9581,18.9587,20.9576,1.00025
1.61,0.927868,1.00079,19.9488,18.9494,20.9483,1.00025
1.62,0.929312,1.00082,19.9396,18.9401,20.939,1.00026
1.63,0.930655,1.00076,19.9303,18.9308,20.9298,1.00025
1.64,0.932328,1.00083,19.9209,18.9215,20.9204,1.00026
1.65,0.933517,1.0008,19.9116,18.9122,20.9111,1.00025
1.66,0.935273,1.00081,19.9023,18.9028,20.9017,1.00026
1.67,0.936677,1.00084,19.8929,18.8935,20.8923,1.00027
1.68,0.937924,1.00078,19.8835,18.8841,20.883,1.00025
1.69,0.939535,1.00086,19.8741,18.8748,20.8736,1.00027
1.7,0.940656,1.00082,19.8647,18.8653,20.8642,1.00026
1.71,0.942104,1.00082,19.8553,18.8559,20.8548,1.00026
1.72,0.94359,1.00085,19.8459,18.8465,20.8453,1.00027
1.73,0.944726,1.00079,19.8365,18.837,20.836,1.00026
1.74,0.946283,1.00086,19.827,18.8276,20.8264,1.00027
1.75,0.947313,1.00083,19.8175,18.8181,20.817,1.00026
1.76,0.9487,1.00083,19.8081,18.8086,20.8075,1.00027
1.77,0.950022,1.00086,19.7986,18.7992,20.798,1.00027
1.78,0.951098,1.0008,19.7891,18.7896,20.7886,1.00026
1.79,0.952621,1.00087,19.7795,18.7802,20.779,1.00027
1.8,0.95362,1.00084,19.77,18.7706,20.7694,1.00027
1.81,0.954903,1.00083,19.7605,18.7611,20.7599,1.00027
1.82,0.956217,1.00087,19.7509,18.7515,20.7503,1.00027
1.83,0.957093,1.00082,19.7413,18.7419,20.7408,1.00027
1.84,0.958475,1.00088,19.7318,18.7324,20.7312,1.00027
1.85,0.95948,1.00086,19.7222,18.7228,20.7216,1.00028
1.86,0.960651,1.00083,19.7126,18.7132,20.712,1.00027
1.87,0.962006,1.00089,19.703,18.7036,20.7024,1.00028
1.88,0.962951,1.00083,19.6933,18.6939,20.6928,1.00027
1.89,0.964279,1.00086,19.6837,18.6843,20.6831,1.00027
1.9,0.965375,1.00088,19.6741,18.6747,20.6735,1.00028
1.91,0.966368,1.00082,19.6644,18.665,20.6639,1.00027
1.92,0.967739,1.0009,19.6547,18.6554,20.6541,1.00028
1.93,0.968652,1.00086,19.645,18.6456,20.6445,1.00028
1.94,0.969737,1.00086,19.6354,18.636,20.6348,1.00027
1.95,0.970941,1.0009,19.6257,18.6263,20.625,1.00028
1.96,0.971796,1.00084,19.6159,18.6165,20.6154,1.00028
1.97,0.973037,1.00089,19.6062,18.6069,20.6056,1.00028
1.98,0.974059,1.00088,19.5965,18.5971,20.5959,1.00029
1.99,0.975031,1.00084,19.5867,18.5873,20.5862,1.00027
2,0.976298,1.00091,19.577,18.5776,20.5764,1.00028
2.01,0.977017,1.00087,19.5672,18.5678,20.5666,1.00028
2.02,0.978089,1.00088,19.5574,18.5581,20.5569,1.00028
2.03,0.9792,1.00091,19.5476,18.5483,20.547,1.00029
2.04,0.979942,1.00086,19.5379,18.5385,20.5373,1.00028
2.05,0.981163,1.00091,19.528,18.5287,20.5274,1.00028
2.06,0.98203,1.0009,19.5182,18.5188,20.5176,1.00029
2.07,0.982861,1.00086,19.5084,18.509,20.5079,1.00028
2.08,0.984073,1.00093,19.4986,18.4992,20.498,1.00029
2.09,0.984735,1.00089,19.4887,18.4893,20.4882,1.00029
2.1,0.985644,1.00089,19.4789,18.4795,20.4783,1.00028
2.11,0.986688,1.00093,19.469,18.4697,20.4684,1.0003
2.12,0.987456,1.00088,19.4591,18.4598,20.4586,1.00029
2.13,0.988463,1.00092,19.4493,18.4499,20.4487,1.00028
2.14,0.989364,1.00092,19.4394,18.44,20.4388,1.0003
2.15,0.990092,1.00086,19.4295,18.4301,20.4289,1.00028
2.16,0.991142,1.00094,19.4196,18.4203,20.419,1.00029
2.17,0.991902,1.0009,19.4097,18.4103,20.4091,1.0003
2.18,0.992763,1.00088,19.3997,18.4004,20.3992,1.00028
2.19,0.993837,1.00095,19.3898,18.3905,20.3892,1.00029
2.2,0.994317,1.0009,19.3799,18.3805,20.3793,1.0003
2.21,0.995293,1.00092,19.3699,18.3706,20.3693,1.00029
2.22,0.996178,1.00094,19.36,18.3606,20.3593,1.0003
2.23,0.996848,1.00089,19.35,18.3506,20.3494,1.00029
2.24,0.997686,1.00094,19.34,18.3407,20.3394,1.00029
2.25,0.998477,1.00092,19.33,18.3307,20.3294,1.0003
2.26,0.99913,1.00088,19.3201,18.3207,20.3195,1.00028
2.27,1.0001,1.00094,19.3101,18.3107,20.3094,1.00029
2.28,1.00072,1.00091,19.3001,18.3007,20.2995,1.0003
2.29,1.00147,1.00089,19.29,18.2907,20.2895,1.00028
2.3,1.00248,1.00096,19.28,18.2807,20.2794,1.0003
2.31,1.00308,1.00092,19.27,18.2706,20.2694,1.0003
2.32,1.00383,1.00093,19.26,18.2606,20.2594,1.00029
2.33,1.00481,1.00096,19.2499,18.2506,20.2493,1.00031
2.34,1.00523,1.00092,19.2399,18.2405,20.2393,1.0003
2.35,1.00605,1.00095,19.2298,18.2305,20.2292,1.00029
2.36,1.00677,1.00095,19.2197,18.2204,20.2191,1.00031
2.37,1.0072,1.00091,19.2097,18.2103,20.2091,1.0003
2.38,1.00815,1.00096,19.1996,18.2003,20.199,1.00029
2.39,1.00886,1.00094,19.1895,18.1902,20.1889,1.00031
2.4,1.00942,1.00091,19.1794,18.1801,20.1788,1.00029
2.41,1.01035,1.00097,19.1693,18.17,20.1687,1.0003
2.42,1.01092,1.00094,19.1592,18.1599,20.1586,1.00031
2.43,1.01161,1.00092,19.1491,18.1498,20.1485,1.00029
2.44,1.01254,1.00097,19.139,18.1397,20.1383,1.00031
2.45,1.01295,1.00093,19.1289,18.1295,20.1283,1.00031
2.46,1.01358,1.00093,19.1187,18.1194,20.1181,1.00029
2.47,1.01441,1.00097,19.1086,18.1093,20.108,1.00031
2.48,1.01485,1.00093,19.0984,18.0991,20.0978,1.00031
2.49,1.01554,1.00095,19.0883,18.089,20.0877,1.00029
2.5,1.01632,1.00097,19.0781,18.0788,20.0775,1.00031
2.51,1.01669,1.00094,19.068,18.0686,20.0674,1.00031
2.52,1.01736,1.00097,19.0578,18.0585,20.0572,1.0003
2.53,1.01807,1.00097,19.0476,18.0483,20.047,1.00032
2.54,1.01848,1.00094,19.0374,18.0381,20.0368,1.0003
2.55,1.01938,1.00098,19.0272,18.028,20.0266,1.0003
2.56,1.01992,1.00097,19.0171,18.0177,20.0164,1.00032
2.57,1.0203,1.00094,19.0069,18.0075,20.0062,1.0003
2.58,1.0212,1.00099,18.9966,17.9974,19.996,1.00031
2.59,1.02173,1.00097,18.9864,17.9871,19.9858,1.00032
2.6,1.02219,1.00094,18.9762,17.9769,19.9756,1.0003
2.61,1.02295,1.001,18.966,17.9667,19.9653,1.00031
2.62,1.02348,1.00097,18.9558,17.9564,19.9551,1.00032
2.63,1.02396,1.00094,18.9455,17.9462,19.9449,1.00029
2.64,1.02478,1.00099,18.9353,17.936,19.9346,1.00031
2.65,1.02536,1.00096,18.925,17.9257,19.9244,1.00032
2.66,1.02584,1.00094,18.9148,17.9155,19.9142,1.00029
2.67,1.02659,1.00099,18.9045,17.9052,19.9038,1.00031
2.68,1.02693,1.00096,18.8942,17.8949,19.8936,1.00032
2.69,1.0274,1.00095,18.884,17.8847,19.8833,1.0003
2.7,1.02804,1.001,18.8737,17.8744,19.873,1.00032
2.71,1.02849,1.00097,18.8634,17.8641,19.8628,1.00032
2.72,1.02895,1.00096,18.8531,17.8538,19.8525,1.0003
2.73,1.02971,1.001,18.8428,17.8435,19.8422,1.00032
2.74,1.03007,1.00096,18.8325,17.8332,19.8319,1.00032
2.75,1.0306,1.00097,18.8222,17.8229,19.8216,1.0003
2.76,1.0313,1.00099,18.8119,17.8126,19.8113,1.00032
2.77,1.03157,1.00096,18.8016,17.8023,19.801,1.00032
2.78,1.03215,1.00097,18.7913,17.792,19.7906,1.0003
2.79,1.03284,1.001,18.781,17.7816,19.7803,1.00032
2.8,1.03319,1.00097,18.7706,17.7713,19.77,1.00032
2.81,1.03376,1.00099,18.7603,17.761,19.7596,1.00031
2.82,1.03447,1.001,18.75,17.7506,19.7493,1.00033
2.83,1.03466,1.00098,18.7396,17.7403,19.739,1.00032
2.84,1.03514,1.00099,18.7293,17.73,19.7286,1.00031
2.85,1.03576,1.001,18.7189,17.7196,19.7182,1.00033
2.86,1.03605,1.00098,18.7085,17.7092,19.7079,1.00032
2.87,1.03665,1.00099,18.6982,17.6989,19.6975,1.00031
2.88,1.03731,1.001,18.6878,17.6885,19.6871,1.00033
2.89,1.03755,1.00097,18.6774,17.6781,19.6768,1.00032
2.9,1.03814,1.00099,18.6671,17.6678,19.6664,1.00031
2.91,1.03876,1.001,18.6567,17.6574,19.656,1.00033
2.92,1.03905,1.00098,18.6463,17.647,19.6456,1.00032
2.93,1.0396,1.001,18.6359,17.6366,19.6352,1.00031
2.94,1.04011,1.001,18.6255,17.6262,19.6248,1.00033
2.95,1.04038,1.00098,18.6151,17.6158,19.6145,1.00032
2.96,1.04082,1.001,18.6047,17.6054,19.604,1.00031
2.97,1.04151,1.001,18.5943,17.595,19.5936,1.00033
2.98,1.04172,1.00098,18.5839,17.5845,19.5832,1.00032
2.99,1.04223,1.001,18.5734,17.5742,19.5728,1.00031
3,1.04278,1.001,18.563,17.5637,19.5623,1.00033
3.01,1.04299,1.00098,18.5526,17.5533,19.5519,1.00032
3.02,1.04349,1.001,18.5422,17.5429,19.5415,1.00031
3.03,1.04409,1.00101,18.5317,17.5324,19.531,1.00033
3.04,1.04433,1.00099,18.5213,17.522,19.5206,1.00032
3.05,1.04478,1.00101,18.5108,17.5116,19.5102,1.00031
3.06,1.04544,1.00101,18.5004,17.5011,19.4997,1.00033
3.07,1.04554,1.001,18.4899,17.4906,19.4893,1.00032
3.08,1.04597,1.00101,18.4795,17.4802,19.4788,1.00032
3.09,1.04649,1.00102,18.469,17.4697,19.4683,1.00034
3.1,1.04675,1.001,18.4585,17.4592,19.4579,1.00032
3.11,1.0474,1.00101,18.4481,17.4488,19.4474,1.00031
3.12,1.04789,1.00102,18.4376,17.4383,19.4369,1.00034
3.13,1.04796,1.001,18.4271,17.4278,19.4265,1.00033
3.14,1.04839,1.00101,18.4166,17.4174,19.416,1.00032
3.15,1.0489,1.00102,18.4061,17.4068,19.4055,1.00033
3.16,1.04908,1.001,18.3957,17.3964,19.395,1.00032
3.17,1.04946,1.00101,18.3852,17.3859,19.3845,1.00031
3.18,1.05008,1.00102,18.3747,17.3754,19.374,1.00034
3.19,1.05018,1.001,18.3642,17.3649,19.3635,1.00033
3.2,1.05049,1.001,18.3537,17.3544,19.353,1.00031
3.21,1.05109,1.00103,18.3431,17.3439,19.3425,1.00034
3.22,1.05124,1.00101,18.3326,17.3333,19.332,1.00033
3.23,1.05157,1.00101,18.3221,17.3229,19.3215,1.00031
3.24,1.05217,1.00104,18.3116,17.3123,19.3109,1.00034
3.25,1.0523,1.00101,18.3011,17.3018,19.3004,1.00033
3.26,1.05269,1.00101,18.2906,17.2913,19.2899,1.00031
3.27,1.05321,1.00104,18.28,17.2808,19.2793,1.00034
3.28,1.05338,1.00101,18.2695,17.2702,19.2688,1.00033
3.29,1.05366,1.001,18.259,17.2597,19.2583,1.00031
3.3,1.05418,1.00104,18.2484,17.2491,19.2477,1.00033
3.31,1.05437,1.00102,18.2379,17.2386,19.2372,1.00034
3.32,1.05462,1.001,18.2273,17.2281,19.2267,1.00031
3.33,1.05524,1.00105,18.2168,17.2175,19.2161,1.00034
3.34,1.05552,1.00103,18.2062,17.2069,19.2056,1.00034
3.35,1.05583,1.001,18.1957,17.1964,19.195,1.00031
3.36,1.05638,1.00105,18.1851,17.1858,19.1844,1.00033
3.37,1.05654,1.00102,18.1745,17.1752,19.1739,1.00034
3.38,1.0568,1.00099,18.164,17.1647,19.1633,1.00031
3.39,1.05731,1.00104,18.1534,17.1541,19.1527,1.00033
3.4,1.05762,1.00102,18.1428,17.1435,19.1422,1.00034
3.41,1.05775,1.001,18.1323,17.133,19.1316,1.00031
3.42,1.05823,1.00104,18.1217,17.1224,19.121,1.00033
3.43,1.0585,1.00102,18.1111,17.1118,19.1104,1.00034
3.44,1.05863,1.00101,18.1005,17.1012,19.0999,1.00032
3.45,1.05911,1.00104,18.0899,17.0907,19.0892,1.00033
3.46,1.05958,1.00104,18.0793,17.08,19.0786,1.00034
3.47,1.05964,1.00102,18.0687,17.0695,19.0681,1.00032
3.48,1.06006,1.00104,18.0581,17.0589,19.0575,1.00033
3.49,1.06046,1.00103,18.0475,17.0482,19.0469,1.00034
3.5,1.06048,1.00102,18.0369,17.0377,19.0363,1.00033
3.51,1.06093,1.00103,18.0263,17.0271,19.0257,1.00032
3.52,1.06139,1.00104,18.0157,17.0164,19.015,1.00034
3.53,1.06145,1.00102,18.0051,17.0058,19.0044,1.00033
3.54,1.06195,1.00103,17.9945,16.9952,18.9938,1.00032
3.55,1.0621,1.00105,17.9839,16.9846,18.9832,1.00034
3.56,1.06216,1.00103,17.9732,16.974,18.9726,1.00034
3.57,1.06247,1.00103,17.9626,16.9634,18.9619,1.00032
3.58,1.06295,1.00106,17.952,16.9527,18.9513,1.00034
3.59,1.06303,1.00103,17.9414,16.9421,18.9407,1.00034
3.6,1.06326,1.00101,17.9307,16.9315,18.9301,1.00032
3.61,1.06365,1.00105,17.9201,16.9208,18.9194,1.00034
3.62,1.06379,1.00103,17.9095,16.9102,18.9088,1.00034
3.63,1.06392,1.00101,17.8988,16.8995,18.8982,1.00031
3.64,1.06441,1.00105,17.8882,16.8889,18.8875,1.00034
3.65,1.0646,1.00103,17.8775,16.8782,18.8769,1.00034
3.66,1.06478,1.00101,17.8669,16.8676,18.8662,1.00031
3.67,1.06515,1.00105,17.8562,16.857,18.8555,1.00033
3.68,1.06546,1.00104,17.8456,16.8463,18.8449,1.00035
3.69,1.06556,1.00103,17.8349,16.8357,18.8343,1.00032
3.7,1.06592,1.00106,17.8243,16.825,18.8236,1.00033
3.71,1.0663,1.00105,17.8136,16.8143,18.8129,1.00035
3.72,1.06634,1.00104,17.8029,16.8037,18.8023,1.00033
3.73,1.06675,1.00105,17.7923,16.793,18.7916,1.00033
3.74,1.06713,1.00105,17.7816,16.7823,18.7809,1.00035
3.75,1.06721,1.00104,17.7709,16.7717,18.7703,1.00033
3.76,1.06743,1.00104,17.7603,16.761,18.7596,1.00033
3.77,1.06787,1.00105,17.7496,16.7503,18.7489,1.00035
3.78,1.0678,1.00105,17.7389,16.7396,18.7382,1.00034
