time,velocity,ratio,centerX,Xmax,Xmin,Ymax
0,0,1,1.75,0.75,2.75,1
0.01,0.0182379,0.999998,1.74992,0.749908,2.74993,1.00001
0.02,0.0358931,1.00003,1.74967,0.74968,2.74966,1.00002
0.03,0.0530005,1.00008,1.74924,0.749301,2.74921,1.00004
0.04,0.0696057,1.00015,1.74865,0.74877,2.74857,1.00005
0.05,0.0856859,1.00023,1.7479,0.748092,2.74776,1.00007
0.06,0.101201,1.00033,1.74698,0.747272,2.74678,1.00008
0.07,0.116425,1.00045,1.74592,0.746313,2.74563,1.00011
0.08,0.131147,1.00058,1.7447,0.745229,2.74433,1.00013
0.09,0.145477,1.00073,1.74334,0.744019,2.74288,1.00016
0.1,0.159408,1.0009,1.74184,0.742689,2.74128,1.0002
0.11,0.172825,1.0011,1.74021,0.741244,2.73954,1.00025
0.12,0.185713,1.00133,1.73844,0.739705,2.73767,1.00031
0.13,0.198537,1.00158,1.73654,0.738064,2.73567,1.00038
0.14,0.211003,1.00183,1.73451,0.736326,2.73357,1.00045
0.15,0.222976,1.00209,1.73236,0.734492,2.73137,1.00052
0.16,0.234812,1.00237,1.7301,0.732569,2.72904,1.0006
0.17,0.246312,1.00266,1.72771,0.730538,2.72658,1.00067
0.18,0.257475,1.003,1.72521,0.72842,2.72398,1.00077
0.19,0.268397,1.00339,1.7226,0.726219,2.72124,1.00089
0.2,0.278833,1.00381,1.71989,0.723946,2.71838,1.00102
0.21,0.289186,1.00425,1.71706,0.721601,2.71541,1.00114
0.22,0.299236,1.00472,1.71414,0.719192,2.71232,1.00127
0.23,0.308881,1.00523,1.71112,0.716713,2.70909,1.0014
0.24,0.318417,1.00581,1.708,0.714153,2.70573,1.00158
0.25,0.327711,1.00642,1.70478,0.711527,2.70225,1.00175
0.26,0.336743,1.00705,1.70148,0.708849,2.69867,1.00192
0.27,0.345385,1.00772,1.69808,0.70612,2.69497,1.0021
0.28,0.353916,1.00846,1.6946,0.703348,2.69113,1.0023
0.29,0.362202,1.00927,1.69104,0.700519,2.68717,1.00253
0.3,0.370104,1.01008,1.68739,0.69761,2.68312,1.00276
0.31,0.377979,1.01092,1.68366,0.694638,2.67892,1.00298
0.32,0.385613,1.01184,1.67986,0.691614,2.6746,1.00324
0.33,0.393044,1.01281,1.67598,0.688542,2.6702,1.00352
0.34,0.400051,1.01378,1.67203,0.685427,2.66573,1.00379
0.35,0.407032,1.01478,1.668,0.682282,2.66117,1.00407
0.36,0.413698,1.0159,1.66391,0.67913,2.65648,1.00439
0.37,0.420079,1.01705,1.65975,0.675959,2.65173,1.00472
0.38,0.426457,1.01824,1.65553,0.672775,2.64687,1.00505
0.39,0.432115,1.01949,1.65125,0.669565,2.6419,1.00539
0.4,0.438204,1.02082,1.64691,0.666312,2.63684,1.00578
0.41,0.444051,1.02217,1.64251,0.663036,2.6317,1.00616
0.42,0.449496,1.02358,1.63805,0.659754,2.62645,1.00653
0.43,0.454915,1.02507,1.63354,0.656466,2.62112,1.00696
0.44,0.460068,1.02663,1.62897,0.653165,2.61567,1.00739
0.45,0.465161,1.02823,1.62436,0.649827,2.61011,1.00781
0.46,0.469763,1.02986,1.61969,0.646494,2.60454,1.00825
0.47,0.474516,1.03155,1.61498,0.643162,2.59893,1.00873
0.48,0.478932,1.03329,1.61022,0.639842,2.59322,1.00921
0.49,0.483353,1.03504,1.60542,0.636487,2.58747,1.00968
0.5,0.487579,1.03689,1.60057,0.633083,2.58162,1.01021
0.51,0.491672,1.03875,1.59569,0.629635,2.57568,1.01073
0.52,0.495594,1.04063,1.59076,0.626158,2.56967,1.01123
0.53,0.499381,1.04261,1.58579,0.622661,2.56356,1.0118
0.54,0.502998,1.04467,1.58079,0.619202,2.55736,1.01237
0.55,0.506215,1.04678,1.57575,0.615764,2.55107,1.01292
0.56,0.509535,1.04902,1.57068,0.612345,2.54467,1.01353
0.57,0.512755,1.05128,1.56557,0.608932,2.53827,1.01414
0.58,0.515788,1.05358,1.56044,0.605507,2.53177,1.01474
0.59,0.518547,1.05595,1.55527,0.602062,2.52523,1.01538
0.6,0.521312,1.05838,1.55008,0.598632,2.51862,1.01604
0.61,0.523957,1.06085,1.54486,0.595214,2.51193,1.01667
0.62,0.526481,1.06343,1.53961,0.591811,2.50518,1.01736
0.63,0.52885,1.06605,1.53434,0.588381,2.49835,1.01806
0.64,0.530914,1.06871,1.52905,0.584962,2.49145,1.01874
0.65,0.53302,1.07151,1.52373,0.581557,2.48447,1.01949
0.66,0.535027,1.07432,1.5184,0.578175,2.47748,1.02023
0.67,0.536925,1.07718,1.51304,0.574786,2.47043,1.02097
0.68,0.538676,1.08013,1.50767,0.571365,2.46331,1.02177
0.69,0.540198,1.08309,1.50228,0.567932,2.45614,1.02256
0.7,0.541753,1.08614,1.49688,0.564504,2.4489,1.02335
0.71,0.543056,1.08926,1.49146,0.561079,2.44161,1.0242
0.72,0.54438,1.09246,1.48602,0.557691,2.43423,1.02502
0.73,0.545519,1.09573,1.48058,0.554329,2.42682,1.02588
0.74,0.546452,1.09912,1.47512,0.550998,2.41932,1.02676
0.75,0.547321,1.10252,1.46966,0.547691,2.41183,1.02762
0.76,0.548237,1.10604,1.46418,0.544405,2.40426,1.02853
0.77,0.549063,1.10959,1.4587,0.541105,2.39667,1.02945
0.78,0.549579,1.1132,1.45321,0.537834,2.389,1.03036
0.79,0.550198,1.11693,1.44772,0.534591,2.38131,1.03132
0.8,0.550703,1.12071,1.44222,0.531385,2.37354,1.03226
0.81,0.551109,1.12452,1.43671,0.52819,2.36576,1.0332
0.82,0.551388,1.12849,1.4312,0.525004,2.35791,1.0342
0.83,0.551452,1.13247,1.42569,0.521852,2.35004,1.03519
0.84,0.551467,1.13657,1.42018,0.518743,2.34212,1.03619
0.85,0.551473,1.14076,1.41467,0.515673,2.33418,1.03724
0.86,0.551454,1.145,1.40915,0.512622,2.32619,1.03827
0.87,0.551073,1.14929,1.40364,0.509536,2.31819,1.03934
0.88,0.550877,1.15366,1.39814,0.506439,2.31013,1.04042
0.89,0.550569,1.15802,1.39263,0.503325,2.30206,1.04149
0.9,0.550265,1.16251,1.38713,0.50021,2.29393,1.04261
0.91,0.549701,1.16703,1.38163,0.497087,2.28579,1.04373
0.92,0.549239,1.17163,1.37614,0.49404,2.2776,1.04483
0.93,0.54858,1.17638,1.37065,0.491054,2.2694,1.04601
0.94,0.548008,1.1812,1.36517,0.488109,2.26116,1.04716
0.95,0.547105,1.18605,1.3597,0.485189,2.25291,1.0483
0.96,0.54633,1.19104,1.35423,0.482292,2.24463,1.0495
0.97,0.545511,1.19603,1.34877,0.479384,2.23633,1.05068
0.98,0.54467,1.20114,1.34333,0.4765,2.22799,1.05189
0.99,0.543595,1.20634,1.33789,0.47364,2.21963,1.05313
1,0.542429,1.2116,1.33246,0.470813,2.21125,1.05435
1.01,0.541365,1.21697,1.32704,0.46802,2.20286,1.05562
1.02,0.540275,1.22241,1.32163,0.465234,2.19445,1.0569
1.03,0.539097,1.22788,1.31624,0.462456,2.18601,1.05816
1.04,0.537549,1.23349,1.31085,0.459708,2.17756,1.05948
1.05,0.536313,1.23919,1.30549,0.456985,2.16907,1.06079
1.06,0.535027,1.24491,1.30013,0.454294,2.16059,1.06209
1.07,0.533691,1.25074,1.29479,0.451625,2.15211,1.06343
1.08,0.532151,1.25661,1.28946,0.448945,2.14361,1.06477
1.09,0.530589,1.26248,1.28415,0.446258,2.13512,1.06608
1.1,0.529001,1.26852,1.27885,0.443588,2.1266,1.06747
1.11,0.527368,1.27459,1.27357,0.44093,2.11808,1.06884
1.12,0.525675,1.28073,1.26831,0.438296,2.10952,1.07019
1.13,0.524091,1.28701,1.26306,0.435685,2.10098,1.07162
1.14,0.522437,1.29336,1.25783,0.433119,2.09242,1.07303
1.15,0.520501,1.29973,1.25261,0.430583,2.08388,1.07442
1.16,0.518726,1.3063,1.24742,0.428083,2.07532,1.07589
1.17,0.516861,1.3129,1.24224,0.425614,2.06678,1.07734
1.18,0.515046,1.31955,1.23708,0.423177,2.05821,1.07876
1.19,0.513039,1.32635,1.23194,0.420766,2.04965,1.08024
1.2,0.511099,1.3332,1.22682,0.418361,2.04108,1.0817
1.21,0.509142,1.34007,1.22172,0.415972,2.03253,1.08315
1.22,0.506984,1.34712,1.21664,0.413616,2.02397,1.08467
1.23,0.504957,1.35423,1.21158,0.411289,2.01542,1.08618
1.24,0.502901,1.36139,1.20654,0.408996,2.00687,1.08767
1.25,0.500905,1.36871,1.20152,0.406734,1.99833,1.08922
1.26,0.498684,1.37611,1.19653,0.404501,1.98979,1.09076
1.27,0.496599,1.38354,1.19155,0.402272,1.98125,1.09229
1.28,0.494439,1.39109,1.1866,0.400072,1.97274,1.09386
1.29,0.492135,1.3987,1.18166,0.397904,1.96424,1.09542
1.3,0.48994,1.40638,1.17675,0.395769,1.95575,1.09696
1.31,0.487811,1.41417,1.17187,0.393663,1.94728,1.09853
1.32,0.485407,1.4221,1.167,0.391591,1.9388,1.10014
1.33,0.483209,1.43008,1.16216,0.389545,1.93034,1.10173
1.34,0.480941,1.43812,1.15734,0.387495,1.92187,1.10331
1.35,0.478447,1.44629,1.15254,0.38544,1.91343,1.10496
1.36,0.476182,1.45449,1.14777,0.383385,1.905,1.10659
1.37,0.473855,1.46272,1.14302,0.381325,1.89658,1.10819
1.38,0.471345,1.47107,1.13829,0.37927,1.88817,1.10985
1.39,0.469042,1.47947,1.13359,0.377222,1.87978,1.1115
1.4,0.466764,1.48792,1.12891,0.375184,1.8714,1.11312
1.41,0.464095,1.49646,1.12425,0.373156,1.86304,1.11478
1.42,0.46183,1.50521,1.11962,0.371202,1.85468,1.11648
1.43,0.459367,1.51402,1.11502,0.369292,1.84636,1.11816
1.44,0.456976,1.5229,1.11044,0.367411,1.83805,1.11982
1.45,0.454433,1.53197,1.10588,0.36556,1.82976,1.12156
1.46,0.451994,1.54112,1.10135,0.363734,1.82149,1.12328
1.47,0.449613,1.55033,1.09684,0.361929,1.81324,1.12501
1.48,0.447168,1.5596,1.09236,0.360155,1.805,1.12669
1.49,0.444798,1.56903,1.0879,0.358404,1.79679,1.12844
1.5,0.442435,1.5785,1.08346,0.356655,1.7886,1.13016
1.51,0.440015,1.58802,1.07905,0.354924,1.78044,1.13187
1.52,0.437553,1.59769,1.07466,0.353215,1.77229,1.13362
1.53,0.43515,1.60747,1.0703,0.351524,1.76417,1.13539
1.54,0.432728,1.61732,1.06596,0.349863,1.75607,1.13714
1.55,0.430341,1.62722,1.06164,0.34822,1.748,1.13888
1.56,0.427882,1.63733,1.05735,0.346605,1.73995,1.14069
1.57,0.425511,1.64745,1.05309,0.345013,1.73194,1.14245
1.58,0.422987,1.65764,1.04884,0.343443,1.72397,1.14421
1.59,0.420595,1.66784,1.04463,0.341887,1.71605,1.14595
1.6,0.418175,1.67819,1.04043,0.340338,1.7082,1.14777
1.61,0.4158,1.68854,1.03626,0.338811,1.70043,1.14957
1.62,0.41332,1.69888,1.03212,0.337302,1.69274,1.15136
1.63,0.410908,1.70922,1.028,0.335813,1.68513,1.15314
1.64,0.408322,1.7197,1.0239,0.334346,1.67759,1.15499
1.65,0.405863,1.73015,1.01983,0.332896,1.67014,1.15682
1.66,0.403473,1.74059,1.01578,0.331471,1.66276,1.15861
1.67,0.401032,1.75102,1.01176,0.330063,1.65545,1.16039
1.68,0.39859,1.76159,1.00776,0.328674,1.64821,1.16224
1.69,0.396175,1.77218,1.00379,0.327307,1.64104,1.16409
1.7,0.393737,1.78275,0.999839,0.325939,1.63394,1.16592
1.71,0.391325,1.7933,0.995911,0.324575,1.6269,1.16773
1.72,0.388954,1.80395,0.992013,0.323223,1.61993,1.1696
1.73,0.38652,1.81465,0.988133,0.321878,1.61301,1.17147
1.74,0.384105,1.8253,0.984283,0.320548,1.60616,1.17332
1.75,0.381601,1.83595,0.980452,0.319227,1.59937,1.17514
1.76,0.379217,1.84669,0.976649,0.317925,1.59262,1.17698
1.77,0.376768,1.85749,0.97287,0.316634,1.58596,1.17888
1.78,0.374384,1.86832,0.969112,0.315356,1.57933,1.18076
1.79,0.371978,1.87914,0.965384,0.314093,1.57278,1.18263
1.8,0.369517,1.88999,0.961674,0.31285,1.56627,1.18448
1.81,0.367189,1.90097,0.957992,0.311626,1.55983,1.1864
1.82,0.364934,1.91201,0.954332,0.310442,1.55343,1.1883
1.83,0.362605,1.92304,0.950693,0.309274,1.54708,1.19018
1.84,0.360283,1.93409,0.947081,0.308118,1.54078,1.19204
1.85,0.358038,1.94516,0.943488,0.306981,1.53455,1.1939
1.86,0.355688,1.9564,0.939921,0.305857,1.52834,1.19583
1.87,0.353328,1.96759,0.936376,0.304747,1.52222,1.19774
1.88,0.351065,1.97885,0.932852,0.303654,1.51611,1.19964
1.89,0.348823,1.99008,0.929356,0.302574,1.51008,1.20152
1.9,0.346458,2.00139,0.925878,0.301513,1.50409,1.20341
1.91,0.344175,2.01279,0.922426,0.300464,1.49813,1.20533
1.92,0.341923,2.02418,0.918997,0.299431,1.49225,1.20724
1.93,0.339644,2.03562,0.915586,0.298408,1.48638,1.20913
1.94,0.337448,2.04704,0.912204,0.297406,1.48059,1.21101
1.95,0.335071,2.05853,0.90884,0.296412,1.47484,1.21291
1.96,0.332872,2.07014,0.905499,0.295421,1.46912,1.21485
1.97,0.330652,2.08169,0.902185,0.29444,1.46348,1.21679
1.98,0.328505,2.09331,0.898888,0.293478,1.45786,1.2187
1.99,0.32627,2.10489,0.895615,0.292523,1.45228,1.22058
2,0.324141,2.11645,0.892364,0.291579,1.44677,1.22245
2.01,0.321935,2.12822,0.889132,0.290649,1.44128,1.2244
2.02,0.319788,2.14,0.885924,0.289739,1.43584,1.22633
2.03,0.317661,2.15177,0.882738,0.288837,1.43046,1.22825
2.04,0.315403,2.16359,0.879571,0.287946,1.42509,1.23016
2.05,0.313281,2.1754,0.876429,0.287069,1.41978,1.23205
2.06,0.311185,2.18732,0.873307,0.286211,1.41452,1.23398
2.07,0.309039,2.19931,0.870204,0.285363,1.40928,1.23592
2.08,0.306974,2.21129,0.867126,0.284526,1.40408,1.23784
2.09,0.304835,2.22326,0.864068,0.2837,1.39895,1.23975
2.1,0.302768,2.23528,0.861027,0.282884,1.39384,1.24165
2.11,0.300577,2.24733,0.858012,0.28208,1.38876,1.24353
2.12,0.298545,2.2595,0.855018,0.281288,1.38375,1.2455
2.13,0.296472,2.27171,0.852041,0.280503,1.37876,1.24746
2.14,0.294447,2.28399,0.849088,0.279724,1.37378,1.24941
2.15,0.29231,2.29614,0.846155,0.278953,1.36889,1.25133
2.16,0.290308,2.30832,0.843241,0.278194,1.36402,1.25322
2.17,0.288305,2.32056,0.840347,0.277443,1.35917,1.2551
2.18,0.286338,2.33294,0.837477,0.276704,1.35437,1.25706
2.19,0.284394,2.34528,0.834622,0.275975,1.34962,1.259
2.2,0.28248,2.35768,0.831786,0.275256,1.3449,1.26094
2.21,0.280517,2.37013,0.828974,0.274548,1.34019,1.26286
2.22,0.27848,2.38248,0.826178,0.273849,1.33557,1.26477
2.23,0.276583,2.39486,0.823401,0.273162,1.33097,1.26665
2.24,0.274694,2.40739,0.820646,0.272483,1.32638,1.26858
2.25,0.272853,2.41996,0.81791,0.271814,1.32184,1.27051
2.26,0.270995,2.4325,0.815189,0.271155,1.31736,1.27244
2.27,0.269051,2.44509,0.812487,0.270505,1.31288,1.27436
2.28,0.267188,2.45773,0.809809,0.269864,1.30843,1.27626
2.29,0.265376,2.47033,0.807146,0.269232,1.30404,1.27816
2.3,0.263545,2.48296,0.8045,0.26861,1.29968,1.28005
2.31,0.261707,2.49576,0.801875,0.267996,1.29534,1.282
2.32,0.259798,2.50857,0.799269,0.26739,1.29102,1.28392
2.33,0.258045,2.52132,0.796678,0.266794,1.28676,1.28583
2.34,0.256293,2.53408,0.794105,0.266205,1.28254,1.28773
2.35,0.254519,2.54688,0.791554,0.265623,1.27833,1.28962
2.36,0.252736,2.55972,0.789019,0.265047,1.27414,1.2915
2.37,0.251023,2.57255,0.786498,0.264474,1.27001,1.2934
2.38,0.249278,2.58548,0.783996,0.263903,1.26591,1.29534
2.39,0.247536,2.59842,0.781515,0.263334,1.26183,1.29726
2.4,0.245654,2.61137,0.779048,0.262769,1.25777,1.29916
2.41,0.243984,2.62425,0.776599,0.262206,1.25376,1.30105
2.42,0.242312,2.63711,0.774167,0.261646,1.24979,1.30292
2.43,0.240572,2.65,0.771756,0.261089,1.24584,1.30479
2.44,0.23897,2.66298,0.769358,0.260536,1.2419,1.30667
2.45,0.237262,2.67606,0.766975,0.259987,1.23799,1.3086
2.46,0.235619,2.68908,0.764611,0.259441,1.23414,1.31052
2.47,0.233833,2.70212,0.762265,0.258898,1.23031,1.31243
2.48,0.232263,2.71514,0.759935,0.258359,1.22649,1.31431
2.49,0.230616,2.72817,0.757618,0.257825,1.22271,1.31618
2.5,0.229058,2.7411,0.755319,0.257297,1.21898,1.31803
2.51,0.227472,2.75405,0.75304,0.256772,1.21527,1.31988
2.52,0.225923,2.76715,0.750773,0.256252,1.21158,1.32176
2.53,0.22429,2.78034,0.74852,0.255737,1.2079,1.32367
2.54,0.222692,2.79343,0.746285,0.255226,1.20428,1.32556
2.55,0.221164,2.80651,0.744069,0.254719,1.20069,1.32744
2.56,0.219562,2.8196,0.741866,0.254218,1.19712,1.3293
2.57,0.218066,2.83272,0.739677,0.253721,1.19356,1.33114
2.58,0.216546,2.84582,0.737502,0.253229,1.19002,1.33297
2.59,0.214915,2.85884,0.735346,0.252742,1.18654,1.33479
2.6,0.213508,2.87199,0.733206,0.252261,1.18308,1.33666
2.61,0.212008,2.88524,0.731078,0.251784,1.17964,1.33854
2.62,0.210538,2.89854,0.728964,0.251313,1.1762,1.34041
2.63,0.209081,2.91178,0.726865,0.250847,1.1728,1.34227
2.64,0.207594,2.92496,0.724785,0.250386,1.16945,1.34411
2.65,0.205998,2.93814,0.722719,0.24993,1.16611,1.34593
2.66,0.204484,2.95141,0.720667,0.249498,1.16278,1.34774
2.67,0.20316,2.96481,0.718627,0.249097,1.15947,1.34954
2.68,0.201754,2.97817,0.716603,0.248713,1.15621,1.35134
2.69,0.200388,2.99168,0.714596,0.248339,1.15298,1.3532
2.7,0.199031,3.00524,0.7126,0.247974,1.14976,1.35504
2.71,0.197662,3.01886,0.710615,0.247619,1.14655,1.35688
2.72,0.196324,3.03253,0.708644,0.247273,1.14336,1.3587
2.73,0.194985,3.04606,0.706688,0.246932,1.14022,1.3605
2.74,0.193692,3.05958,0.704748,0.246595,1.1371,1.36229
2.75,0.192387,3.07314,0.702818,0.246264,1.134,1.36406
2.76,0.191107,3.08674,0.7009,0.245937,1.13091,1.36583
2.77,0.189803,3.10042,0.698994,0.245615,1.12782,1.36761
2.78,0.188535,3.11413,0.697104,0.245298,1.12479,1.36943
2.79,0.187232,3.12783,0.695228,0.244986,1.12179,1.37125
2.8,0.185983,3.14156,0.693363,0.244677,1.1188,1.37306
2.81,0.184709,3.15535,0.691509,0.244374,1.11582,1.37486
2.82,0.183414,3.16915,0.689667,0.244075,1.11284,1.37663
2.83,0.182178,3.18286,0.687839,0.243781,1.10991,1.37839
2.84,0.180961,3.19651,0.686026,0.243491,1.10702,1.38013
2.85,0.17974,3.21018,0.684225,0.243205,1.10413,1.38187
2.86,0.178529,3.2239,0.682433,0.242923,1.10126,1.38359
2.87,0.177343,3.23778,0.680652,0.242644,1.09839,1.38536
2.88,0.176135,3.25167,0.678884,0.24237,1.09556,1.38714
2.89,0.174943,3.26546,0.67713,0.242099,1.09277,1.38891
2.9,0.173778,3.2793,0.675389,0.241831,1.08999,1.39068
2.91,0.172591,3.2931,0.673658,0.241568,1.08722,1.3924
2.92,0.171427,3.30695,0.671938,0.241308,1.08446,1.39413
2.93,0.170271,3.32084,0.670228,0.241052,1.08171,1.39584
2.94,0.169169,3.33458,0.66853,0.240799,1.07901,1.39754
2.95,0.168029,3.34833,0.666847,0.24055,1.07633,1.39924
2.96,0.16687,3.36211,0.665175,0.240304,1.07366,1.40092
2.97,0.165776,3.37605,0.663512,0.240062,1.07101,1.40265
2.98,0.164666,3.39007,0.661859,0.239823,1.06836,1.40439
2.99,0.163548,3.40407,0.660217,0.239587,1.06573,1.40612
3,0.162457,3.41792,0.658587,0.239354,1.06314,1.40782
3.01,0.161357,3.43178,0.656971,0.239125,1.06057,1.40952
3.02,0.160268,3.44568,0.655365,0.238898,1.05801,1.4112
3.03,0.159201,3.45961,0.653768,0.238675,1.05546,1.41288
3.04,0.158173,3.47357,0.652181,0.238455,1.05291,1.41454
3.05,0.157092,3.4875,0.650604,0.238239,1.0504,1.4162
3.06,0.156013,3.50134,0.649038,0.238025,1.04791,1.41785
3.07,0.154982,3.51522,0.647486,0.237814,1.04544,1.4195
3.08,0.153893,3.52927,0.645944,0.237606,1.04299,1.4212
3.09,0.152885,3.54332,0.644411,0.237401,1.04053,1.42288
3.1,0.151865,3.55739,0.642888,0.237198,1.03809,1.42454
3.11,0.15083,3.57141,0.641374,0.236999,1.03567,1.4262
3.12,0.149807,3.58533,0.63987,0.236802,1.03329,1.42785
3.13,0.148884,3.59928,0.638378,0.236608,1.03092,1.42948
3.14,0.147846,3.61325,0.636898,0.236416,1.02856,1.43111
3.15,0.146896,3.62724,0.635426,0.236227,1.02621,1.43273
3.16,0.145922,3.64127,0.633963,0.236041,1.02387,1.43435
3.17,0.14497,3.65531,0.632508,0.235857,1.02154,1.43595
3.18,0.144003,3.66907,0.631063,0.235644,1.01925,1.43756
3.19,0.143076,3.68278,0.629627,0.235402,1.01698,1.43919
3.2,0.142131,3.69651,0.628205,0.235159,1.01471,1.44081
3.21,0.141211,3.71024,0.626791,0.234915,1.01245,1.44243
3.22,0.140297,3.72398,0.625386,0.234671,1.0102,1.44404
3.23,0.139353,3.73771,0.623989,0.234424,1.00796,1.44563
3.24,0.138465,3.75133,0.6226,0.234176,1.00575,1.44722
3.25,0.137556,3.76487,0.621219,0.233927,1.00357,1.44881
3.26,0.136649,3.7784,0.619848,0.233675,1.0014,1.45038
3.27,0.135734,3.79193,0.618489,0.233423,0.999229,1.45194
3.28,0.134794,3.80544,0.617139,0.23317,0.997071,1.45349
3.29,0.133965,3.81892,0.615796,0.232914,0.994921,1.45502
3.3,0.133114,3.83247,0.61446,0.23266,0.992778,1.45656
3.31,0.132235,3.84596,0.613133,0.232402,0.990673,1.45814
3.32,0.131433,3.85942,0.611813,0.232146,0.988585,1.45971
3.33,0.130555,3.87285,0.610502,0.231886,0.986504,1.46126
3.34,0.129704,3.88628,0.609202,0.231628,0.984436,1.46281
3.35,0.128873,3.89972,0.607912,0.231367,0.98237,1.46435
3.36,0.128074,3.91316,0.606628,0.231108,0.980315,1.46588
3.37,0.127229,3.92659,0.605352,0.230845,0.978266,1.46741
3.38,0.12638,3.93986,0.604084,0.230585,0.976255,1.46892
3.39,0.125584,3.95303,0.602823,0.230322,0.974261,1.47041
3.4,0.124777,3.9662,0.60157,0.230061,0.972274,1.47188
3.41,0.124,3.97937,0.600325,0.229798,0.970293,1.47335
3.42,0.123164,3.99253,0.599091,0.229535,0.968319,1.47481
3.43,0.122402,4.00589,0.597865,0.229275,0.966354,1.47633
3.44,0.121636,4.01921,0.596646,0.229009,0.964395,1.47783
3.45,0.120849,4.03246,0.595434,0.228747,0.962459,1.47933
3.46,0.120089,4.04559,0.594229,0.228484,0.960551,1.48082
3.47,0.119347,4.05871,0.59303,0.228219,0.95865,1.4823
3.48,0.118576,4.07185,0.59184,0.227957,0.956755,1.48378
3.49,0.117826,4.08494,0.590657,0.227692,0.954866,1.48523
3.5,0.11709,4.09802,0.589483,0.227428,0.952985,1.48668
3.51,0.116345,4.1111,0.588319,0.227166,0.951111,1.48811
3.52,0.115616,4.12415,0.587161,0.226899,0.949244,1.48953
3.53,0.114913,4.13708,0.586009,0.226636,0.947406,1.49094
3.54,0.114162,4.14994,0.584863,0.226374,0.945587,1.49235
3.55,0.113436,4.16278,0.583724,0.226108,0.943775,1.49375
3.56,0.112679,4.17579,0.582593,0.225845,0.941969,1.49519
3.57,0.111973,4.18882,0.581468,0.225583,0.94017,1.49664
3.58,0.111275,4.20183,0.580352,0.225317,0.938377,1.49808
3.59,0.110575,4.21484,0.579245,0.225054,0.936591,1.49951
3.6,0.109816,4.22784,0.578145,0.224793,0.934811,1.50092
3.61,0.109116,4.2407,0.577052,0.224527,0.933049,1.50232
3.62,0.108499,4.25344,0.575964,0.224265,0.931316,1.5037
