time,velocity,ratio,centerX,Xmax,Xmin,Ymax
0,0,1,13.5,12.5,14.5,1
0.01,0.0196009,0.999995,13.4999,12.4999,14.4999,0.999999
0.02,0.0386026,1,13.4996,12.4996,14.4996,1
0.03,0.0570172,1.00004,13.4991,12.4992,14.4991,1.00001
0.04,0.0748404,1.00007,13.4985,12.4985,14.4984,1.00002
0.05,0.0921245,1.00009,13.4976,12.4977,14.4976,1.00003
0.06,0.108915,1.00011,13.4966,12.4967,14.4966,1.00004
0.07,0.125241,1.00014,13.4955,12.4956,14.4954,1.00004
0.08,0.141146,1.00015,13.4941,12.4943,14.494,1.00003
0.09,0.156649,1.00016,13.4927,12.4928,14.4925,1.00002
0.1,0.171903,1.00017,13.491,12.4912,14.4909,1.00002
0.11,0.186941,1.00017,13.4892,12.4894,14.4891,1.00003
0.12,0.201545,1.00014,13.4873,12.4874,14.4872,1.00005
0.13,0.215849,1.00013,13.4852,12.4853,14.4852,1.00007
0.14,0.229694,1.00015,13.483,12.4831,14.4829,1.00008
0.15,0.243168,1.00017,13.4806,12.4807,14.4805,1.00006
0.16,0.256217,1.00019,13.4781,12.4783,14.478,1.00003
0.17,0.268977,1.00022,13.4755,12.4757,14.4753,1.00003
0.18,0.281563,1.00025,13.4727,12.4729,14.4725,1.00005
0.19,0.293961,1.00022,13.4698,12.47,14.4697,1.00008
0.2,0.305986,1.00022,13.4668,12.467,14.4667,1.0001
0.21,0.317601,1.00027,13.4637,12.4639,14.4636,1.0001
0.22,0.328889,1.00031,13.4605,12.4607,14.4603,1.00009
0.23,0.340114,1.0004,13.4572,12.4575,14.4569,1.0001
0.24,0.35118,1.00041,13.4537,12.454,14.4534,1.00011
0.25,0.361807,1.0004,13.4501,12.4504,14.4499,1.00013
0.26,0.37208,1.0004,13.4465,12.4468,14.4462,1.00013
0.27,0.382082,1.00042,13.4427,12.4429,14.4424,1.00015
0.28,0.392299,1.00045,13.4388,12.4391,14.4385,1.00014
0.29,0.402157,1.00046,13.4349,12.4352,14.4346,1.00014
0.3,0.411611,1.00047,13.4308,12.4312,14.4305,1.00012
0.31,0.420983,1.0005,13.4266,12.427,14.4263,1.00015
0.32,0.43028,1.00047,13.4224,12.4227,14.422,1.00015
0.33,0.439252,1.00046,13.418,12.4183,14.4178,1.00016
0.34,0.447919,1.00049,13.4136,12.4139,14.4133,1.00016
0.35,0.456658,1.00054,13.4091,12.4094,14.4087,1.00017
0.36,0.465238,1.00053,13.4045,12.4048,14.4041,1.00016
0.37,0.473426,1.00055,13.3998,12.4002,14.3994,1.00016
0.38,0.481466,1.00061,13.395,12.3954,14.3946,1.00018
0.39,0.489569,1.00062,13.3901,12.3906,14.3897,1.00019
0.4,0.497291,1.00058,13.3852,12.3856,14.3848,1.0002
0.41,0.504821,1.00065,13.3802,12.3806,14.3798,1.00021
0.42,0.512463,1.00071,13.3751,12.3756,14.3746,1.00022
0.43,0.519765,1.00067,13.3699,12.3704,14.3695,1.00021
0.44,0.52703,1.00071,13.3647,12.3652,14.3642,1.00022
0.45,0.534242,1.00077,13.3594,12.36,14.3589,1.00024
0.46,0.54114,1.00071,13.354,12.3545,14.3536,1.00024
0.47,0.547933,1.00074,13.3486,12.3491,14.3481,1.00024
0.48,0.554783,1.00079,13.3431,12.3436,14.3425,1.00025
0.49,0.561177,1.00075,13.3375,12.338,14.337,1.00024
0.5,0.567661,1.0008,13.3319,12.3324,14.3313,1.00025
0.51,0.574112,1.00083,13.3261,12.3267,14.3256,1.00025
0.52,0.580209,1.00079,13.3204,12.3209,14.3199,1.00025
0.53,0.586424,1.00085,13.3145,12.3151,14.314,1.00027
0.54,0.592435,1.00085,13.3086,12.3092,14.3081,1.00027
0.55,0.598254,1.00085,13.3027,12.3033,14.3021,1.00027
0.56,0.604186,1.00091,13.2967,12.2973,14.2961,1.00029
0.57,0.609801,1.00087,13.2906,12.2912,14.2901,1.00028
0.58,0.615449,1.00092,13.2845,12.2851,14.2839,1.0003
0.59,0.621039,1.00095,13.2783,12.279,14.2777,1.0003
0.6,0.626348,1.00092,13.2721,12.2727,14.2715,1.0003
0.61,0.631835,1.00099,13.2658,12.2665,14.2651,1.00031
0.62,0.637111,1.00095,13.2594,12.2601,14.2588,1.0003
0.63,0.642191,1.00099,13.253,12.2537,14.2524,1.00032
0.64,0.647343,1.00102,13.2466,12.2473,14.2459,1.00032
0.65,0.652241,1.001,13.2401,12.2408,14.2395,1.00032
0.66,0.657265,1.00106,13.2336,12.2343,14.2329,1.00034
0.67,0.661976,1.00101,13.227,12.2277,14.2263,1.00032
0.68,0.666853,1.00106,13.2203,12.221,14.2196,1.00035
0.69,0.671539,1.00107,13.2136,12.2144,14.2129,1.00033
0.7,0.676163,1.00107,13.2069,12.2076,14.2062,1.00035
0.71,0.680767,1.00111,13.2001,12.2009,14.1993,1.00035
0.72,0.685222,1.00109,13.1933,12.194,14.1926,1.00035
0.73,0.689681,1.00113,13.1864,12.1872,14.1856,1.00037
0.74,0.69403,1.0011,13.1795,12.1803,14.1788,1.00034
0.75,0.698452,1.00113,13.1725,12.1733,14.1718,1.00038
0.76,0.702646,1.00113,13.1655,12.1663,14.1648,1.00035
0.77,0.706865,1.00115,13.1585,12.1592,14.1577,1.00038
0.78,0.710983,1.00117,13.1514,12.1522,14.1506,1.00037
0.79,0.715008,1.00119,13.1442,12.1451,14.1435,1.00039
0.8,0.719029,1.00121,13.1371,12.1379,14.1363,1.00039
0.81,0.722881,1.00121,13.1299,12.1307,14.1291,1.00039
0.82,0.726821,1.00124,13.1226,12.1235,14.1218,1.0004
0.83,0.730456,1.00123,13.1153,12.1162,14.1145,1.00039
0.84,0.7344,1.00127,13.108,12.1089,14.1072,1.00042
0.85,0.738041,1.00124,13.1006,12.1015,14.0998,1.00039
0.86,0.741816,1.00128,13.0932,12.0941,14.0924,1.00043
0.87,0.745347,1.00126,13.0858,12.0867,14.085,1.00039
0.88,0.748997,1.0013,13.0783,12.0792,14.0775,1.00043
0.89,0.75245,1.00128,13.0708,12.0717,14.07,1.0004
0.9,0.756083,1.00132,13.0633,12.0642,14.0624,1.00044
0.91,0.759486,1.0013,13.0557,12.0566,14.0548,1.00041
0.92,0.762928,1.00134,13.0481,12.049,14.0472,1.00044
0.93,0.766203,1.00132,13.0405,12.0414,14.0396,1.00042
0.94,0.769517,1.00135,13.0328,12.0337,14.0319,1.00045
0.95,0.772568,1.00135,13.0251,12.026,14.0242,1.00043
0.96,0.775839,1.00138,13.0173,12.0183,14.0164,1.00046
0.97,0.778975,1.00138,13.0096,12.0105,14.0086,1.00044
0.98,0.782103,1.00141,13.0018,12.0027,14.0008,1.00046
0.99,0.785217,1.00141,12.9939,11.9949,13.993,1.00044
1,0.788206,1.00144,12.986,11.987,13.9851,1.00047
1.01,0.791069,1.00143,12.9782,11.9791,13.9772,1.00046
1.02,0.794048,1.00146,12.9702,11.9712,13.9693,1.00048
1.03,0.796843,1.00145,12.9623,11.9633,13.9613,1.00046
1.04,0.799751,1.00148,12.9543,11.9553,13.9533,1.00049
1.05,0.802459,1.00147,12.9463,11.9473,13.9453,1.00046
1.06,0.805293,1.0015,12.9382,11.9393,13.9373,1.00049
1.07,0.807923,1.00147,12.9302,11.9312,13.9292,1.00046
1.08,0.810843,1.0015,12.9221,11.9231,13.9211,1.0005
1.09,0.813415,1.00146,12.914,11.915,13.913,1.00047
1.1,0.816093,1.00151,12.9058,11.9068,13.9048,1.0005
1.11,0.818614,1.00149,12.8976,11.8987,13.8967,1.00048
1.12,0.82128,1.00154,12.8894,11.8905,13.8884,1.00051
1.13,0.823655,1.00152,12.8812,11.8823,13.8802,1.00049
1.14,0.826277,1.00157,12.873,11.874,13.8719,1.00051
1.15,0.828723,1.00154,12.8647,11.8658,13.8637,1.0005
1.16,0.831336,1.00158,12.8564,11.8575,13.8554,1.00052
1.17,0.83373,1.00157,12.8481,11.8492,13.8471,1.00052
1.18,0.836162,1.0016,12.8397,11.8408,13.8386,1.00052
1.19,0.838484,1.0016,12.8313,11.8325,13.8303,1.00052
1.2,0.840805,1.00162,12.823,11.8241,13.8219,1.00052
1.21,0.843105,1.00162,12.8145,11.8157,13.8135,1.00053
1.22,0.845316,1.00162,12.8061,11.8072,13.805,1.00051
1.23,0.847609,1.00163,12.7976,11.7988,13.7966,1.00054
1.24,0.849721,1.0016,12.7891,11.7903,13.7881,1.00051
1.25,0.852033,1.00165,12.7806,11.7818,13.7796,1.00055
1.26,0.854233,1.00162,12.7721,11.7732,13.771,1.00052
1.27,0.856414,1.00167,12.7635,11.7647,13.7625,1.00055
1.28,0.85839,1.00165,12.755,11.7561,13.7539,1.00054
1.29,0.860572,1.00169,12.7464,11.7475,13.7453,1.00055
1.3,0.862592,1.00167,12.7378,11.7389,13.7367,1.00055
1.31,0.864675,1.00169,12.7291,11.7303,13.728,1.00055
1.32,0.866726,1.00169,12.7205,11.7216,13.7194,1.00056
1.33,0.868708,1.00169,12.7118,11.713,13.7107,1.00054
1.34,0.870829,1.00172,12.7031,11.7043,13.702,1.00057
1.35,0.872768,1.00169,12.6944,11.6956,13.6933,1.00054
1.36,0.874817,1.00173,12.6856,11.6868,13.6845,1.00057
1.37,0.876642,1.00171,12.6769,11.6781,13.6758,1.00056
1.38,0.878604,1.00174,12.6681,11.6693,13.667,1.00057
1.39,0.880494,1.00172,12.6593,11.6605,13.6582,1.00057
1.4,0.882314,1.00174,12.6505,11.6517,13.6493,1.00056
1.41,0.884235,1.00176,12.6417,11.6429,13.6405,1.00058
1.42,0.885975,1.00176,12.6328,11.6341,13.6316,1.00055
1.43,0.887848,1.00179,12.6239,11.6252,13.6228,1.00059
1.44,0.889537,1.00177,12.6151,11.6163,13.6139,1.00057
1.45,0.891352,1.0018,12.6062,11.6074,13.605,1.00059
1.46,0.893087,1.00178,12.5972,11.5985,13.5961,1.00059
1.47,0.894861,1.0018,12.5883,11.5895,13.5871,1.00058
1.48,0.896603,1.00181,12.5793,11.5806,13.5782,1.0006
1.49,0.898224,1.0018,12.5704,11.5716,13.5692,1.00057
1.5,0.899971,1.00182,12.5614,11.5626,13.5602,1.0006
1.51,0.901393,1.0018,12.5524,11.5536,13.5512,1.00059
1.52,0.903059,1.00183,12.5433,11.5446,13.5421,1.0006
1.53,0.904646,1.00181,12.5343,11.5356,13.5331,1.0006
1.54,0.90637,1.00182,12.5253,11.5265,13.524,1.00059
1.55,0.90802,1.00184,12.5162,11.5175,13.515,1.00061
1.56,0.909451,1.00183,12.5071,11.5084,13.5059,1.00058
1.57,0.911204,1.00187,12.498,11.4993,13.4968,1.00061
1.58,0.91258,1.00186,12.4889,11.4902,13.4877,1.00061
1.59,0.913993,1.00189,12.4797,11.481,13.4785,1.00061
1.6,0.915462,1.00189,12.4706,11.4719,13.4694,1.00063
1.61,0.91687,1.00189,12.4614,11.4627,13.4602,1.00061
1.62,0.91841,1.00191,12.4523,11.4536,13.451,1.00063
1.63,0.919761,1.0019,12.4431,11.4444,13.4418,1.00062
1.64,0.921233,1.00193,12.4339,11.4352,13.4326,1.00063
1.65,0.922622,1.00191,12.4246,11.426,13.4234,1.00063
1.66,0.924027,1.00191,12.4154,11.4167,13.4141,1.00062
1.67,0.925485,1.00192,12.4062,11.4075,13.4049,1.00064
1.68,0.92683,1.0019,12.3969,11.3982,13.3957,1.00062
1.69,0.928303,1.00193,12.3876,11.389,13.3864,1.00063
1.7,0.929578,1.00192,12.3783,11.3797,13.3771,1.00063
1.71,0.930893,1.00194,12.369,11.3704,13.3677,1.00062
1.72,0.932268,1.00194,12.3597,11.3611,13.3585,1.00064
1.73,0.93359,1.00192,12.3504,11.3517,13.3491,1.00062
1.74,0.934953,1.00195,12.341,11.3424,13.3398,1.00065
1.75,0.936184,1.00195,12.3317,11.333,13.3304,1.00065
1.76,0.937383,1.00197,12.3223,11.3237,13.321,1.00063
1.77,0.9387,1.00198,12.3129,11.3143,13.3117,1.00065
1.78,0.939846,1.00197,12.3035,11.3049,13.3023,1.00063
1.79,0.941139,1.00199,12.2941,11.2955,13.2928,1.00066
1.8,0.942311,1.00198,12.2847,11.2861,13.2834,1.00066
1.81,0.943556,1.00199,12.2753,11.2767,13.274,1.00065
1.82,0.944838,1.002,12.2659,11.2672,13.2646,1.00066
1.83,0.945921,1.00199,12.2564,11.2578,13.2551,1.00064
1.84,0.947119,1.00202,12.2469,11.2483,13.2456,1.00066
1.85,0.948199,1.00201,12.2375,11.2389,13.2362,1.00066
1.86,0.949275,1.00202,12.228,11.2294,13.2267,1.00065
1.87,0.950483,1.00202,12.2185,11.2199,13.2172,1.00067
1.88,0.951584,1.00201,12.209,11.2103,13.2077,1.00066
1.89,0.952804,1.00203,12.1994,11.2008,13.1981,1.00067
1.9,0.95388,1.00203,12.1899,11.1913,13.1886,1.00067
1.91,0.954981,1.00203,12.1804,11.1818,13.179,1.00065
1.92,0.956219,1.00205,12.1708,11.1722,13.1695,1.00067
1.93,0.95714,1.00203,12.1612,11.1626,13.1599,1.00067
1.94,0.958316,1.00205,12.1517,11.1531,13.1503,1.00067
1.95,0.959371,1.00206,12.1421,11.1435,13.1408,1.00069
1.96,0.960375,1.00206,12.1325,11.1339,13.1311,1.00066
1.97,0.961577,1.00208,12.1229,11.1243,13.1215,1.00068
1.98,0.962622,1.00207,12.1133,11.1147,13.1119,1.00068
1.99,0.963654,1.00208,12.1036,11.1051,13.1023,1.00067
2,0.964738,1.00208,12.094,11.0954,13.0926,1.00069
2.01,0.965666,1.00206,12.0843,11.0857,13.083,1.00067
2.02,0.966691,1.00209,12.0747,11.0761,13.0733,1.00069
2.03,0.967657,1.00208,12.065,11.0664,13.0636,1.00069
2.04,0.9686,1.00208,12.0553,11.0568,13.0539,1.00066
2.05,0.969644,1.0021,12.0456,11.0471,13.0443,1.00069
2.06,0.970603,1.00208,12.0359,11.0374,13.0346,1.00069
2.07,0.971599,1.0021,12.0262,11.0276,13.0248,1.00069
2.08,0.97258,1.00211,12.0165,11.0179,13.0151,1.0007
2.09,0.973352,1.00211,12.0068,11.0082,13.0054,1.00068
2.1,0.974429,1.00214,11.997,10.9985,12.9956,1.0007
2.11,0.97526,1.00213,11.9873,10.9888,12.9859,1.0007
2.12,0.976089,1.00214,11.9775,10.979,12.9761,1.00069
2.13,0.977053,1.00215,11.9677,10.9692,12.9664,1.00072
2.14,0.977872,1.00214,11.958,10.9594,12.9566,1.00071
2.15,0.978762,1.00216,11.9482,10.9497,12.9468,1.00071
2.16,0.979809,1.00216,11.9384,10.9399,12.937,1.00071
2.17,0.980637,1.00215,11.9286,10.9301,12.9272,1.00069
2.18,0.981578,1.00216,11.9188,10.9203,12.9174,1.00071
2.19,0.98242,1.00215,11.909,10.9104,12.9076,1.00071
2.2,0.983257,1.00214,11.8991,10.9006,12.8977,1.00069
2.21,0.984188,1.00215,11.8893,10.8908,12.8879,1.00072
2.22,0.985038,1.00215,11.8795,10.8809,12.8781,1.00071
2.23,0.98581,1.00217,11.8696,10.8711,12.8682,1.0007
2.24,0.986576,1.00217,11.8597,10.8613,12.8584,1.00072
2.25,0.987249,1.00216,11.8499,10.8514,12.8485,1.0007
2.26,0.988133,1.00218,11.84,10.8415,12.8386,1.00072
2.27,0.988888,1.00218,11.8301,10.8316,12.8287,1.00073
2.28,0.989646,1.00217,11.8202,10.8217,12.8188,1.0007
2.29,0.990483,1.0022,11.8103,10.8118,12.8089,1.00072
2.3,0.991194,1.00219,11.8004,10.8019,12.799,1.00072
2.31,0.991976,1.0022,11.7905,10.792,12.789,1.00071
2.32,0.992816,1.0022,11.7806,10.7821,12.7792,1.00073
2.33,0.993568,1.00218,11.7706,10.7721,12.7692,1.00072
2.34,0.994307,1.00221,11.7607,10.7622,12.7593,1.00072
2.35,0.995124,1.00221,11.7508,10.7523,12.7493,1.00073
2.36,0.995706,1.00221,11.7408,10.7423,12.7394,1.00071
2.37,0.996467,1.00222,11.7308,10.7324,12.7294,1.00073
2.38,0.997229,1.00222,11.7209,10.7224,12.7194,1.00074
2.39,0.997902,1.00221,11.7109,10.7124,12.7094,1.00071
2.4,0.998726,1.00223,11.7009,10.7024,12.6995,1.00074
2.41,0.999354,1.00222,11.6909,10.6925,12.6895,1.00074
2.42,1.00005,1.00223,11.6809,10.6825,12.6794,1.00072
2.43,1.00082,1.00224,11.6709,10.6725,12.6695,1.00074
2.44,1.00144,1.00223,11.6609,10.6624,12.6595,1.00073
2.45,1.00221,1.00224,11.6509,10.6524,12.6494,1.00073
2.46,1.00301,1.00224,11.6409,10.6424,12.6394,1.00075
2.47,1.00356,1.00223,11.6308,10.6324,12.6294,1.00073
2.48,1.00426,1.00225,11.6208,10.6223,12.6193,1.00074
2.49,1.00491,1.00225,11.6107,10.6123,12.6093,1.00074
2.5,1.00559,1.00224,11.6007,10.6023,12.5992,1.00072
2.51,1.00628,1.00225,11.5906,10.5922,12.5892,1.00074
2.52,1.00689,1.00224,11.5806,10.5821,12.5791,1.00075
2.53,1.00747,1.00224,11.5705,10.5721,12.569,1.00072
2.54,1.00816,1.00226,11.5604,10.562,12.559,1.00075
2.55,1.0088,1.00225,11.5503,10.5519,12.5489,1.00074
2.56,1.00941,1.00226,11.5402,10.5418,12.5387,1.00073
2.57,1.01011,1.00227,11.5301,10.5317,12.5287,1.00076
2.58,1.0107,1.00226,11.52,10.5216,12.5186,1.00075
2.59,1.01121,1.00228,11.5099,10.5115,12.5084,1.00074
2.6,1.01204,1.0023,11.4998,10.5014,12.4983,1.00076
2.61,1.01245,1.0023,11.4897,10.4913,12.4882,1.00075
2.62,1.01312,1.00231,11.4796,10.4812,12.4781,1.00075
2.63,1.01374,1.00231,11.4694,10.471,12.4679,1.00077
2.64,1.01424,1.0023,11.4593,10.4609,12.4578,1.00075
2.65,1.01487,1.00231,11.4491,10.4507,12.4476,1.00076
2.66,1.01553,1.00231,11.439,10.4406,12.4375,1.00077
2.67,1.01617,1.0023,11.4288,10.4304,12.4273,1.00074
2.68,1.01678,1.00231,11.4187,10.4203,12.4172,1.00076
2.69,1.01721,1.0023,11.4085,10.4101,12.407,1.00076
2.7,1.01772,1.00229,11.3983,10.3999,12.3968,1.00074
2.71,1.01834,1.0023,11.3881,10.3897,12.3867,1.00076
2.72,1.01878,1.0023,11.378,10.3796,12.3765,1.00076
2.73,1.01926,1.0023,11.3678,10.3694,12.3663,1.00074
2.74,1.01982,1.00231,11.3576,10.3592,12.3561,1.00076
2.75,1.02037,1.0023,11.3474,10.349,12.3459,1.00076
2.76,1.02081,1.00231,11.3372,10.3388,12.3357,1.00075
2.77,1.02141,1.00232,11.327,10.3286,12.3255,1.00077
2.78,1.02186,1.00231,11.3167,10.3183,12.3152,1.00076
2.79,1.02234,1.00233,11.3065,10.3081,12.305,1.00075
2.8,1.02292,1.00234,11.2963,10.2979,12.2948,1.00077
2.81,1.02335,1.00233,11.2861,10.2877,12.2846,1.00077
2.82,1.02395,1.00234,11.2758,10.2774,12.2743,1.00077
2.83,1.02435,1.00235,11.2656,10.2672,12.2641,1.00078
2.84,1.0248,1.00234,11.2553,10.257,12.2538,1.00077
2.85,1.02526,1.00236,11.2451,10.2467,12.2435,1.00077
2.86,1.02575,1.00236,11.2348,10.2365,12.2333,1.00078
2.87,1.02616,1.00235,11.2246,10.2262,12.2231,1.00076
2.88,1.02668,1.00236,11.2143,10.2159,12.2128,1.00078
2.89,1.02728,1.00236,11.204,10.2057,12.2025,1.00079
2.9,1.02775,1.00235,11.1938,10.1954,12.1922,1.00076
2.91,1.02825,1.00236,11.1835,10.1851,12.1819,1.00078
2.92,1.02878,1.00236,11.1732,10.1748,12.1717,1.00078
2.93,1.02925,1.00235,11.1629,10.1645,12.1614,1.00076
2.94,1.0298,1.00235,11.1526,10.1542,12.1511,1.00078
2.95,1.03031,1.00235,11.1423,10.1439,12.1408,1.00079
2.96,1.03068,1.00235,11.132,10.1336,12.1305,1.00076
2.97,1.03116,1.00236,11.1217,10.1233,12.1202,1.00078
2.98,1.0316,1.00236,11.1114,10.113,12.1099,1.00078
2.99,1.03195,1.00235,11.1011,10.1027,12.0995,1.00076
3,1.03244,1.00237,11.0907,10.0924,12.0892,1.00078
3.01,1.03286,1.00236,11.0804,10.082,12.0789,1.00079
3.02,1.03322,1.00236,11.0701,10.0717,12.0685,1.00076
3.03,1.03373,1.00238,11.0598,10.0614,12.0582,1.00079
3.04,1.03421,1.00238,11.0494,10.051,12.0479,1.00079
3.05,1.03452,1.00237,11.0391,10.0407,12.0375,1.00076
3.06,1.03502,1.00239,11.0287,10.0304,12.0272,1.00079
3.07,1.03544,1.00238,11.0184,10.02,12.0168,1.00079
3.08,1.03576,1.00239,11.008,10.0097,12.0065,1.00077
3.09,1.03636,1.0024,10.9977,9.99932,11.9961,1.00079
3.1,1.03671,1.0024,10.9873,9.98896,11.9857,1.00079
3.11,1.03703,1.0024,10.9769,9.97861,11.9754,1.00077
3.12,1.03762,1.00241,10.9666,9.96822,11.965,1.0008
3.13,1.038,1.0024,10.9562,9.95782,11.9546,1.0008
3.14,1.03833,1.0024,10.9458,9.94746,11.9442,1.00077
3.15,1.03882,1.00241,10.9354,9.93707,11.9339,1.0008
3.16,1.03912,1.0024,10.925,9.92667,11.9235,1.00079
3.17,1.03943,1.0024,10.9146,9.9163,11.913,1.00077
3.18,1.03981,1.00241,10.9042,9.90588,11.9027,1.0008
3.19,1.04019,1.00239,10.8938,9.89547,11.8923,1.0008
3.2,1.04046,1.0024,10.8834,9.8851,11.8819,1.00077
3.21,1.04085,1.00241,10.873,9.87469,11.8715,1.0008
3.22,1.04129,1.0024,10.8626,9.86427,11.8611,1.00079
3.23,1.04149,1.0024,10.8522,9.85388,11.8506,1.00077
3.24,1.04205,1.00241,10.8418,9.84344,11.8402,1.0008
3.25,1.04235,1.0024,10.8314,9.83301,11.8298,1.0008
3.26,1.04269,1.00241,10.8209,9.82261,11.8194,1.00078
3.27,1.04312,1.00242,10.8105,9.81217,11.8089,1.0008
3.28,1.04343,1.00242,10.8001,9.80173,11.7985,1.0008
3.29,1.04372,1.00242,10.7896,9.79132,11.788,1.00078
3.3,1.04423,1.00243,10.7792,9.78087,11.7776,1.00081
3.31,1.04453,1.00242,10.7688,9.77041,11.7672,1.00081
3.32,1.04476,1.00243,10.7583,9.76,11.7567,1.00078
3.33,1.04507,1.00245,10.7479,9.74955,11.7463,1.00081
3.34,1.04536,1.00244,10.7374,9.7391,11.7358,1.00081
3.35,1.04565,1.00244,10.7269,9.72866,11.7254,1.00078
3.36,1.04602,1.00246,10.7165,9.71819,11.7149,1.00081
3.37,1.04638,1.00245,10.706,9.70771,11.7045,1.00082
3.38,1.04667,1.00244,10.6956,9.69726,11.694,1.00079
3.39,1.04712,1.00245,10.6851,9.68679,11.6835,1.00081
3.4,1.04744,1.00245,10.6746,9.6763,11.673,1.00081
3.41,1.04772,1.00243,10.6641,9.66584,11.6625,1.00078
3.42,1.04816,1.00244,10.6537,9.65534,11.6521,1.00081
3.43,1.04852,1.00243,10.6432,9.64485,11.6416,1.00081
3.44,1.04874,1.00243,10.6327,9.63439,11.6311,1.00078
3.45,1.04914,1.00244,10.6222,9.6239,11.6206,1.00081
3.46,1.04942,1.00243,10.6117,9.6134,11.6102,1.00081
3.47,1.04955,1.00243,10.6012,9.60292,11.5996,1.00078
3.48,1.04994,1.00244,10.5907,9.59241,11.5891,1.00081
3.49,1.05017,1.00244,10.5802,9.58189,11.5787,1.00081
3.5,1.05041,1.00243,10.5697,9.57141,11.5681,1.00079
3.51,1.05077,1.00245,10.5592,9.5609,11.5576,1.00081
3.52,1.05101,1.00245,10.5487,9.55039,11.5471,1.00081
3.53,1.05126,1.00245,10.5382,9.53989,11.5366,1.00079
3.54,1.05168,1.00246,10.5277,9.52936,11.5261,1.00081
3.55,1.05193,1.00246,10.5172,9.51885,11.5156,1.00082
3.56,1.05213,1.00246,10.5066,9.50836,11.505,1.0008
3.57,1.05266,1.00247,10.4961,9.49783,11.4945,1.00081
3.58,1.05285,1.00248,10.4856,9.48731,11.484,1.00082
3.59,1.053,1.00247,10.4751,9.47679,11.4735,1.0008
3.6,1.0533,1.00248,10.4645,9.46624,11.4629,1.00082
3.61,1.0536,1.00248,10.454,9.4557,11.4524,1.00083
3.62,1.05382,1.00247,10.4435,9.44518,11.4419,1.00081
3.63,1.05405,1.00248,10.4329,9.43462,11.4313,1.00081
3.64,1.05431,1.00248,10.4224,9.42408,11.4208,1.00082
3.65,1.05451,1.00247,10.4118,9.41355,11.4102,1.00081
3.66,1.05484,1.00246,10.4013,9.40298,11.3997,1.00081
3.67,1.05511,1.00247,10.3907,9.39244,11.3892,1.00082
3.68,1.05532,1.00246,10.3802,9.3819,11.3786,1.00081
3.69,1.05565,1.00247,10.3696,9.37135,11.368,1.00081
3.7,1.05589,1.00247,10.3591,9.36079,11.3575,1.00082
3.71,1.05606,1.00247,10.3485,9.35023,11.3469,1.00081
3.72,1.05635,1.00247,10.338,9.33966,11.3363,1.00081
3.73,1.05665,1.00248,10.3274,9.3291,11.3258,1.00083
3.74,1.05688,1.00248,10.3168,9.31853,11.3152,1.00082
3.75,1.05712,1.00248,10.3062,9.30797,11.3046,1.00081
3.76,1.05734,1.0025,10.2957,9.2974,11.2941,1.00083
3.77,1.05755,1.00249,10.2851,9.28682,11.2835,1.00082
