time,velocity,ratio,centerX,Xmax,Xmin,Ymax
0,0,1,13.5,12.5,14.5,1
0.01,0.0195876,1,13.4999,12.4999,14.4999,1
0.02,0.0385911,1,13.4996,12.4996,14.4996,0.999999
0.03,0.056963,1.00001,13.4991,12.4991,14.4991,0.999998
0.04,0.0747972,1.00001,13.4985,12.4985,14.4985,1
0.05,0.0921034,1.00003,13.4976,12.4977,14.4976,1.00001
0.06,0.108961,1.00005,13.4966,12.4967,14.4966,1.00001
0.07,0.125352,1.00007,13.4955,12.4955,14.4954,1.00001
0.08,0.141314,1.00008,13.4941,12.4942,14.4941,1.00001
0.09,0.15686,1.0001,13.4927,12.4927,14.4926,1.00001
0.1,0.172044,1.00013,13.491,12.4911,14.4909,1.00002
0.11,0.186948,1.00018,13.4892,12.4894,14.4891,1.00004
0.12,0.201403,1.00023,13.4873,12.4875,14.4871,1.00006
0.13,0.215426,1.00026,13.4852,12.4854,14.485,1.00008
0.14,0.229083,1.00029,13.483,12.4832,14.4828,1.00009
0.15,0.242478,1.00032,13.4806,12.4809,14.4804,1.00011
0.16,0.255471,1.00038,13.4781,12.4784,14.4779,1.00012
0.17,0.268196,1.00045,13.4755,12.4758,14.4752,1.00015
0.18,0.280629,1.00054,13.4728,12.4732,14.4724,1.00018
0.19,0.292799,1.00063,13.4699,12.4703,14.4695,1.0002
0.2,0.304669,1.00071,13.4669,12.4674,14.4664,1.00022
0.21,0.316234,1.00076,13.4638,12.4643,14.4633,1.00024
0.22,0.327511,1.00083,13.4606,12.4612,14.46,1.00025
0.23,0.338598,1.00095,13.4573,12.4579,14.4566,1.0003
0.24,0.349419,1.00107,13.4538,12.4546,14.4531,1.00034
0.25,0.359933,1.00117,13.4503,12.4511,14.4495,1.00036
0.26,0.370217,1.00122,13.4466,12.4475,14.4458,1.00038
0.27,0.380133,1.00131,13.4429,12.4438,14.442,1.00042
0.28,0.390119,1.00141,13.439,12.44,14.4381,1.00046
0.29,0.399849,1.00151,13.4351,12.4361,14.434,1.00049
0.3,0.409292,1.00158,13.431,12.4321,14.43,1.0005
0.31,0.418567,1.00166,13.4269,12.428,14.4258,1.00054
0.32,0.427634,1.00175,13.4227,12.4238,14.4215,1.00058
0.33,0.436489,1.00184,13.4184,12.4196,14.4171,1.0006
0.34,0.445178,1.00188,13.414,12.4152,14.4127,1.0006
0.35,0.453728,1.00197,13.4095,12.4108,14.4082,1.00065
0.36,0.462144,1.00206,13.4049,12.4063,14.4035,1.00068
0.37,0.470344,1.00212,13.4002,12.4016,14.3988,1.00069
0.38,0.47831,1.00219,13.3955,12.397,14.394,1.00072
0.39,0.486232,1.00227,13.3907,12.3922,14.3892,1.00075
0.4,0.49394,1.00234,13.3858,12.3874,14.3842,1.00076
0.41,0.501477,1.00239,13.3808,12.3824,14.3792,1.00077
0.42,0.508867,1.00245,13.3757,12.3774,14.3741,1.00081
0.43,0.516165,1.00251,13.3706,12.3723,14.3689,1.00082
0.44,0.52326,1.00255,13.3654,12.3672,14.3637,1.00083
0.45,0.530427,1.0026,13.3601,12.3619,14.3585,1.00087
0.46,0.537293,1.00266,13.3548,12.3566,14.3531,1.00088
0.47,0.544038,1.00271,13.3494,12.3513,14.3476,1.00089
0.48,0.550708,1.00277,13.3439,12.3458,14.3421,1.00092
0.49,0.557212,1.00283,13.3384,12.3403,14.3365,1.00093
0.5,0.563502,1.00289,13.3328,12.3347,14.3309,1.00095
0.51,0.569803,1.00295,13.3271,12.3291,14.3252,1.00098
0.52,0.575928,1.003,13.3214,12.3234,14.3194,1.00098
0.53,0.582005,1.00307,13.3156,12.3177,14.3136,1.00101
0.54,0.587959,1.00314,13.3098,12.3119,14.3077,1.00103
0.55,0.593764,1.00318,13.3038,12.306,14.3017,1.00103
0.56,0.599527,1.00325,13.2979,12.3001,14.2957,1.00107
0.57,0.605107,1.00331,13.2919,12.2941,14.2897,1.00109
0.58,0.610634,1.00338,13.2858,12.2881,14.2835,1.00111
0.59,0.616162,1.00344,13.2796,12.282,14.2774,1.00114
0.6,0.621503,1.00347,13.2735,12.2758,14.2711,1.00113
0.61,0.626813,1.00356,13.2672,12.2696,14.2649,1.00118
0.62,0.632097,1.00362,13.2609,12.2634,14.2585,1.0012
0.63,0.637185,1.00369,13.2546,12.2571,14.2521,1.00121
0.64,0.642174,1.00376,13.2482,12.2507,14.2457,1.00124
0.65,0.647005,1.0038,13.2417,12.2443,14.2392,1.00124
0.66,0.651886,1.00387,13.2352,12.2379,14.2327,1.00128
0.67,0.656628,1.00392,13.2287,12.2314,14.2262,1.00128
0.68,0.661377,1.00399,13.2221,12.2248,14.2195,1.00131
0.69,0.666009,1.00405,13.2155,12.2182,14.2128,1.00133
0.7,0.670577,1.0041,13.2088,12.2116,14.2061,1.00135
0.71,0.675113,1.00416,13.2021,12.2049,14.1993,1.00138
0.72,0.679515,1.00419,13.1953,12.1981,14.1925,1.00137
0.73,0.683957,1.00426,13.1885,12.1914,14.1857,1.00141
0.74,0.688265,1.00429,13.1816,12.1845,14.1788,1.00141
0.75,0.692504,1.00434,13.1747,12.1776,14.1719,1.00144
0.76,0.696707,1.00437,13.1678,12.1707,14.1649,1.00145
0.77,0.700867,1.00443,13.1608,12.1638,14.1579,1.00146
0.78,0.704975,1.00447,13.1538,12.1568,14.1508,1.00148
0.79,0.708964,1.0045,13.1467,12.1497,14.1437,1.00148
0.8,0.713009,1.00456,13.1396,12.1426,14.1366,1.00151
0.81,0.71689,1.00458,13.1324,12.1355,14.1294,1.0015
0.82,0.720742,1.00465,13.1252,12.1284,14.1222,1.00154
0.83,0.724359,1.00466,13.118,12.1212,14.1149,1.00153
0.84,0.728094,1.00471,13.1108,12.1139,14.1077,1.00157
0.85,0.731858,1.00473,13.1035,12.1067,14.1004,1.00156
0.86,0.735511,1.00479,13.0961,12.0994,14.093,1.00159
0.87,0.739069,1.00483,13.0887,12.092,14.0856,1.0016
0.88,0.742624,1.00489,13.0813,12.0846,14.0781,1.00162
0.89,0.74605,1.00492,13.0739,12.0772,14.0707,1.00163
0.9,0.749531,1.00498,13.0664,12.0698,14.0631,1.00165
0.91,0.752968,1.00502,13.0589,12.0623,14.0556,1.00166
0.92,0.756196,1.00505,13.0514,12.0548,14.048,1.00167
0.93,0.759476,1.00509,13.0438,12.0472,14.0405,1.00169
0.94,0.762716,1.00513,13.0362,12.0396,14.0328,1.0017
0.95,0.765869,1.00519,13.0285,12.032,14.0251,1.00172
0.96,0.768988,1.00522,13.0209,12.0244,14.0174,1.00173
0.97,0.772123,1.00528,13.0132,12.0167,14.0097,1.00176
0.98,0.775209,1.00532,13.0054,12.009,14.0019,1.00176
0.99,0.778383,1.00539,12.9976,12.0012,13.9941,1.00179
1,0.781261,1.00542,12.9898,11.9935,13.9863,1.00179
1.01,0.784122,1.00546,12.982,11.9857,13.9784,1.00181
1.02,0.786982,1.0055,12.9742,11.9779,13.9706,1.00182
1.03,0.789822,1.00556,12.9663,11.97,13.9626,1.00184
1.04,0.792602,1.0056,12.9584,11.9622,13.9547,1.00184
1.05,0.795372,1.00565,12.9504,11.9542,13.9467,1.00187
1.06,0.798053,1.00569,12.9425,11.9463,13.9387,1.00188
1.07,0.800758,1.00574,12.9345,11.9383,13.9307,1.0019
1.08,0.803438,1.00576,12.9265,11.9304,13.9227,1.00191
1.09,0.806068,1.00579,12.9184,11.9223,13.9146,1.00192
1.1,0.808742,1.00582,12.9103,11.9143,13.9065,1.00194
1.11,0.811244,1.00587,12.9022,11.9062,13.8984,1.00195
1.12,0.813807,1.00591,12.8941,11.8981,13.8903,1.00196
1.13,0.816292,1.00594,12.886,11.89,13.8821,1.00197
1.14,0.818706,1.00599,12.8778,11.8818,13.8739,1.00199
1.15,0.821288,1.00602,12.8696,11.8737,13.8656,1.00199
1.16,0.823738,1.00605,12.8614,11.8655,13.8574,1.00201
1.17,0.826132,1.00606,12.8531,11.8572,13.8492,1.002
1.18,0.828497,1.00612,12.8448,11.849,13.8409,1.00203
1.19,0.830826,1.00612,12.8365,11.8407,13.8325,1.00201
1.2,0.833149,1.00618,12.8282,11.8324,13.8242,1.00205
1.21,0.83539,1.00618,12.8199,11.8241,13.8158,1.00203
1.22,0.837656,1.00624,12.8115,11.8157,13.8074,1.00207
1.23,0.839819,1.00623,12.8031,11.8074,13.7991,1.00206
1.24,0.842018,1.00627,12.7947,11.799,13.7906,1.00208
1.25,0.844183,1.00628,12.7863,11.7906,13.7822,1.00208
1.26,0.846349,1.00632,12.7778,11.7821,13.7737,1.0021
1.27,0.848488,1.00634,12.7694,11.7737,13.7652,1.00211
1.28,0.85061,1.00637,12.7609,11.7652,13.7567,1.00211
1.29,0.852701,1.00642,12.7524,11.7567,13.7482,1.00213
1.3,0.854666,1.00643,12.7438,11.7482,13.7396,1.00212
1.31,0.856624,1.00648,12.7353,11.7397,13.7311,1.00215
1.32,0.858641,1.00647,12.7267,11.7311,13.7225,1.00213
1.33,0.860653,1.00654,12.7181,11.7225,13.7138,1.00216
1.34,0.862626,1.00654,12.7095,11.7139,13.7052,1.00215
1.35,0.864581,1.0066,12.7008,11.7053,13.6965,1.00218
1.36,0.866531,1.00662,12.6922,11.6967,13.6879,1.00219
1.37,0.868433,1.00666,12.6835,11.688,13.6792,1.0022
1.38,0.870359,1.00667,12.6748,11.6793,13.6705,1.00222
1.39,0.872238,1.00669,12.6661,11.6706,13.6618,1.00221
1.4,0.874072,1.00673,12.6574,11.6619,13.653,1.00224
1.41,0.875949,1.00673,12.6486,11.6532,13.6442,1.00222
1.42,0.877803,1.0068,12.6398,11.6444,13.6354,1.00226
1.43,0.879562,1.00681,12.6311,11.6357,13.6266,1.00225
1.44,0.881365,1.00687,12.6223,11.6269,13.6178,1.00227
1.45,0.883099,1.00688,12.6134,11.6181,13.609,1.00228
1.46,0.884769,1.0069,12.6046,11.6093,13.6001,1.00228
1.47,0.886469,1.00694,12.5957,11.6005,13.5912,1.0023
1.48,0.888085,1.00695,12.5869,11.5916,13.5823,1.00229
1.49,0.889765,1.007,12.578,11.5827,13.5734,1.00232
1.5,0.89134,1.00701,12.5691,11.5738,13.5645,1.00231
1.51,0.892914,1.00707,12.5602,11.5649,13.5555,1.00234
1.52,0.894458,1.00706,12.5512,11.556,13.5466,1.00234
1.53,0.896024,1.00708,12.5423,11.5471,13.5377,1.00235
1.54,0.897653,1.00711,12.5333,11.5381,13.5287,1.00236
1.55,0.899207,1.00711,12.5243,11.5291,13.5197,1.00235
1.56,0.900844,1.00717,12.5153,11.5202,13.5107,1.00238
1.57,0.90224,1.00717,12.5063,11.5112,13.5016,1.00237
1.58,0.903919,1.00724,12.4973,11.5022,13.4925,1.00239
1.59,0.905235,1.00724,12.4882,11.4931,13.4835,1.0024
1.6,0.906654,1.00726,12.4792,11.4841,13.4745,1.0024
1.61,0.908098,1.0073,12.4701,11.4751,13.4654,1.00242
1.62,0.909499,1.0073,12.461,11.466,13.4562,1.0024
1.63,0.910952,1.00735,12.4519,11.4569,13.4471,1.00244
1.64,0.912326,1.00736,12.4428,11.4478,13.438,1.00243
1.65,0.913734,1.0074,12.4337,11.4387,13.4288,1.00245
1.66,0.915098,1.00741,12.4245,11.4295,13.4197,1.00246
1.67,0.916495,1.00741,12.4154,11.4204,13.4106,1.00245
1.68,0.917886,1.00746,12.4062,11.4112,13.4014,1.00248
1.69,0.919261,1.00746,12.397,11.4021,13.3922,1.00247
1.7,0.920623,1.0075,12.3878,11.3929,13.3829,1.00249
1.71,0.921919,1.00752,12.3786,11.3837,13.3737,1.00249
1.72,0.92334,1.00754,12.3694,11.3745,13.3645,1.00249
1.73,0.924633,1.00757,12.3601,11.3653,13.3552,1.00251
1.74,0.925881,1.00756,12.3509,11.356,13.346,1.00249
1.75,0.92718,1.00761,12.3416,11.3468,13.3367,1.00252
1.76,0.928425,1.00761,12.3323,11.3375,13.3274,1.00252
1.77,0.929636,1.00763,12.323,11.3282,13.3181,1.00252
1.78,0.930801,1.00766,12.3137,11.3189,13.3088,1.00254
1.79,0.931983,1.00764,12.3044,11.3096,13.2994,1.00252
1.8,0.933278,1.00768,12.2951,11.3003,13.2901,1.00255
1.81,0.934541,1.00768,12.2858,11.291,13.2808,1.00255
1.82,0.93571,1.0077,12.2764,11.2816,13.2714,1.00255
1.83,0.936952,1.00772,12.267,11.2723,13.262,1.00257
1.84,0.938073,1.00771,12.2577,11.2629,13.2527,1.00254
1.85,0.939243,1.00778,12.2483,11.2535,13.2432,1.00258
1.86,0.94027,1.00776,12.2389,11.2442,13.2339,1.00257
1.87,0.941391,1.00779,12.2295,11.2348,13.2245,1.00258
1.88,0.942521,1.00782,12.2201,11.2254,13.215,1.00259
1.89,0.943588,1.00782,12.2106,11.216,13.2056,1.00257
1.9,0.94474,1.00786,12.2012,11.2065,13.1961,1.0026
1.91,0.945787,1.00787,12.1917,11.1971,13.1866,1.00261
1.92,0.946869,1.0079,12.1823,11.1876,13.1771,1.00261
1.93,0.947967,1.00792,12.1728,11.1782,13.1677,1.00263
1.94,0.948936,1.00792,12.1633,11.1687,13.1582,1.00262
1.95,0.950027,1.00798,12.1538,11.1592,13.1487,1.00265
1.96,0.951056,1.00799,12.1443,11.1497,13.1392,1.00265
1.97,0.952076,1.00801,12.1348,11.1402,13.1296,1.00265
1.98,0.953117,1.00806,12.1253,11.1307,13.12,1.00268
1.99,0.95416,1.00805,12.1157,11.1212,13.1105,1.00266
2,0.955143,1.00809,12.1062,11.1117,13.101,1.00268
2.01,0.95621,1.00811,12.0966,11.1022,13.0914,1.00269
2.02,0.957197,1.00812,12.0871,11.0926,13.0818,1.00268
2.03,0.958161,1.00815,12.0775,11.083,13.0722,1.0027
2.04,0.959055,1.00815,12.0679,11.0734,13.0626,1.00269
2.05,0.960032,1.00818,12.0583,11.0639,13.053,1.00271
2.06,0.960952,1.00819,12.0487,11.0543,13.0434,1.00272
2.07,0.961937,1.00817,12.0391,11.0447,13.0338,1.00269
2.08,0.962904,1.00822,12.0295,11.035,13.0241,1.00273
2.09,0.963814,1.00822,12.0198,11.0254,13.0145,1.00272
2.1,0.964667,1.00823,12.0102,11.0158,13.0049,1.00272
2.11,0.965709,1.00827,12.0005,11.0062,12.9952,1.00274
2.12,0.966447,1.00826,11.9909,10.9965,12.9855,1.00273
2.13,0.967293,1.0083,11.9812,10.9869,12.9759,1.00275
2.14,0.968207,1.00831,11.9715,10.9772,12.9662,1.00276
2.15,0.969041,1.00832,11.9618,10.9675,12.9565,1.00274
2.16,0.969929,1.00835,11.9521,10.9578,12.9468,1.00277
2.17,0.970715,1.00834,11.9424,10.9481,12.9371,1.00276
2.18,0.971759,1.00837,11.9327,10.9384,12.9273,1.00277
2.19,0.972627,1.00838,11.923,10.9287,12.9176,1.00278
2.2,0.973482,1.00837,11.9133,10.919,12.9079,1.00277
2.21,0.97436,1.00841,11.9035,10.9093,12.8981,1.00279
2.22,0.975341,1.00841,11.8938,10.8995,12.8884,1.00279
2.23,0.97614,1.00841,11.884,10.8898,12.8786,1.00278
2.24,0.976942,1.00846,11.8743,10.88,12.8688,1.00281
2.25,0.977701,1.00844,11.8645,10.8702,12.8591,1.0028
2.26,0.978408,1.00846,11.8547,10.8605,12.8493,1.0028
2.27,0.979197,1.00848,11.8449,10.8507,12.8395,1.00282
2.28,0.979881,1.00847,11.8351,10.8409,12.8297,1.00279
2.29,0.980795,1.0085,11.8253,10.8311,12.8198,1.00282
2.3,0.981536,1.0085,11.8155,10.8213,12.81,1.00282
2.31,0.982341,1.00849,11.8057,10.8115,12.8002,1.0028
2.32,0.983116,1.00852,11.7959,10.8017,12.7904,1.00283
2.33,0.983911,1.00851,11.786,10.7918,12.7806,1.00282
2.34,0.984693,1.00853,11.7762,10.782,12.7707,1.00282
2.35,0.985411,1.00854,11.7663,10.7721,12.7608,1.00284
2.36,0.986147,1.00853,11.7565,10.7623,12.751,1.00282
2.37,0.9869,1.00858,11.7466,10.7525,12.7411,1.00284
2.38,0.987491,1.00858,11.7367,10.7426,12.7312,1.00285
2.39,0.988238,1.00857,11.7269,10.7327,12.7213,1.00283
2.4,0.988968,1.00862,11.717,10.7229,12.7114,1.00286
2.41,0.989642,1.00862,11.7071,10.713,12.7015,1.00286
2.42,0.990285,1.00863,11.6972,10.7031,12.6916,1.00285
2.43,0.99105,1.00867,11.6873,10.6932,12.6817,1.00288
2.44,0.991792,1.00866,11.6774,10.6833,12.6718,1.00287
2.45,0.992499,1.00868,11.6674,10.6733,12.6618,1.00288
2.46,0.993215,1.0087,11.6575,10.6634,12.6519,1.0029
2.47,0.993899,1.0087,11.6476,10.6535,12.642,1.00288
2.48,0.994585,1.00874,11.6376,10.6436,12.632,1.0029
2.49,0.995223,1.00875,11.6277,10.6336,12.6221,1.00291
2.5,0.995866,1.00874,11.6177,10.6237,12.6121,1.00289
2.51,0.996535,1.00877,11.6078,10.6137,12.6021,1.00292
2.52,0.997178,1.00877,11.5978,10.6038,12.5922,1.00291
2.53,0.997839,1.00878,11.5878,10.5938,12.5822,1.0029
2.54,0.998506,1.0088,11.5779,10.5838,12.5722,1.00292
2.55,0.999066,1.00879,11.5679,10.5738,12.5622,1.00291
2.56,0.999724,1.00881,11.5579,10.5638,12.5522,1.00292
2.57,1.00034,1.00881,11.5479,10.5538,12.5422,1.00293
2.58,1.00098,1.0088,11.5379,10.5438,12.5322,1.00291
2.59,1.00165,1.00883,11.5278,10.5338,12.5221,1.00293
2.6,1.00223,1.00883,11.5178,10.5238,12.5121,1.00294
2.61,1.00281,1.00882,11.5078,10.5138,12.5021,1.00291
2.62,1.00359,1.00887,11.4978,10.5038,12.492,1.00295
2.63,1.00405,1.00885,11.4877,10.4937,12.482,1.00295
2.64,1.00469,1.00886,11.4777,10.4837,12.472,1.00293
2.65,1.00526,1.0089,11.4676,10.4737,12.4619,1.00296
2.66,1.00576,1.0089,11.4576,10.4636,12.4518,1.00295
2.67,1.00631,1.00892,11.4475,10.4536,12.4418,1.00295
2.68,1.00709,1.00895,11.4375,10.4435,12.4317,1.00297
2.69,1.00763,1.00894,11.4274,10.4335,12.4216,1.00296
2.7,1.0082,1.00896,11.4173,10.4234,12.4115,1.00297
2.71,1.00867,1.00898,11.4072,10.4133,12.4015,1.00299
2.72,1.00918,1.00897,11.3971,10.4032,12.3913,1.00297
2.73,1.00973,1.00901,11.387,10.3932,12.3812,1.00299
2.74,1.01017,1.00902,11.3769,10.3831,12.3711,1.003
2.75,1.01066,1.00901,11.3668,10.373,12.361,1.00298
2.76,1.01117,1.00904,11.3567,10.3629,12.3509,1.00301
2.77,1.01163,1.00904,11.3466,10.3528,12.3408,1.00301
2.78,1.01219,1.00904,11.3365,10.3427,12.3307,1.00299
2.79,1.01272,1.00907,11.3264,10.3325,12.3205,1.00301
2.8,1.01322,1.00907,11.3162,10.3224,12.3104,1.00301
2.81,1.01375,1.00907,11.3061,10.3123,12.3002,1.003
2.82,1.01424,1.00909,11.296,10.3021,12.2901,1.00302
2.83,1.01483,1.00908,11.2858,10.292,12.28,1.00301
2.84,1.01528,1.00908,11.2757,10.2818,12.2698,1.00301
2.85,1.01572,1.00909,11.2655,10.2717,12.2597,1.00302
2.86,1.0162,1.00909,11.2554,10.2615,12.2495,1.00301
2.87,1.01664,1.00911,11.2452,10.2514,12.2393,1.00302
2.88,1.01695,1.00912,11.235,10.2412,12.2292,1.00303
2.89,1.01743,1.00912,11.2249,10.2311,12.219,1.00302
2.9,1.01792,1.00915,11.2147,10.2209,12.2088,1.00303
2.91,1.01838,1.00916,11.2045,10.2107,12.1986,1.00304
2.92,1.01885,1.00916,11.1943,10.2006,12.1884,1.00302
2.93,1.01935,1.0092,11.1841,10.1904,12.1782,1.00305
2.94,1.01981,1.0092,11.1739,10.1802,12.168,1.00306
2.95,1.02032,1.00919,11.1637,10.17,12.1578,1.00304
2.96,1.0208,1.00923,11.1535,10.1598,12.1476,1.00306
2.97,1.0213,1.00923,11.1433,10.1496,12.1374,1.00307
2.98,1.02166,1.00923,11.1331,10.1394,12.1271,1.00305
2.99,1.02211,1.00927,11.1229,10.1292,12.1169,1.00308
3,1.02249,1.00926,11.1126,10.119,12.1067,1.00308
3.01,1.02285,1.00925,11.1024,10.1088,12.0965,1.00306
3.02,1.02331,1.00929,11.0922,10.0985,12.0862,1.00309
3.03,1.02368,1.00929,11.082,10.0883,12.076,1.00308
3.04,1.02411,1.00929,11.0717,10.078,12.0657,1.00307
3.05,1.02454,1.00932,11.0615,10.0678,12.0555,1.00309
3.06,1.02492,1.0093,11.0512,10.0576,12.0452,1.00308
3.07,1.02532,1.0093,11.041,10.0473,12.035,1.00307
3.08,1.02575,1.00932,11.0307,10.0371,12.0247,1.0031
3.09,1.02614,1.00931,11.0205,10.0268,12.0145,1.00309
3.1,1.02653,1.00932,11.0102,10.0166,12.0042,1.00308
3.11,1.02697,1.00935,10.9999,10.0063,11.9939,1.0031
3.12,1.02735,1.00933,10.9897,9.99603,11.9837,1.00309
3.13,1.02769,1.00935,10.9794,9.98578,11.9734,1.0031
3.14,1.02823,1.00937,10.9691,9.97551,11.9631,1.00311
3.15,1.02855,1.00936,10.9588,9.96522,11.9528,1.0031
3.16,1.02893,1.00938,10.9485,9.95494,11.9425,1.0031
3.17,1.02932,1.0094,10.9382,9.94464,11.9322,1.00312
3.18,1.02969,1.00938,10.9279,9.93435,11.9219,1.00311
3.19,1.03006,1.0094,10.9177,9.92406,11.9116,1.00312
3.2,1.03044,1.00941,10.9073,9.91376,11.9013,1.00313
3.21,1.03079,1.0094,10.897,9.90346,11.891,1.00311
3.22,1.03116,1.00942,10.8867,9.89315,11.8807,1.00312
3.23,1.03149,1.00943,10.8764,9.88285,11.8704,1.00313
3.24,1.03177,1.00941,10.8661,9.87253,11.8601,1.00311
3.25,1.03207,1.00943,10.8558,9.86222,11.8497,1.00313
3.26,1.03254,1.00943,10.8455,9.8519,11.8394,1.00314
3.27,1.03286,1.00942,10.8351,9.84157,11.8291,1.00311
3.28,1.03335,1.00945,10.8248,9.83123,11.8187,1.00313
3.29,1.03364,1.00944,10.8145,9.82089,11.8084,1.00313
3.3,1.03405,1.00942,10.8041,9.81055,11.798,1.00311
3.31,1.03442,1.00944,10.7938,9.80021,11.7877,1.00313
3.32,1.03484,1.00944,10.7834,9.78987,11.7774,1.00314
3.33,1.03516,1.00942,10.7731,9.77952,11.767,1.00311
3.34,1.03548,1.00945,10.7627,9.76916,11.7567,1.00314
3.35,1.03572,1.00945,10.7524,9.75882,11.7463,1.00314
3.36,1.03598,1.00943,10.742,9.74846,11.7359,1.00311
3.37,1.03626,1.00946,10.7317,9.73812,11.7256,1.00314
3.38,1.03657,1.00947,10.7213,9.72777,11.7152,1.00315
3.39,1.03687,1.00947,10.7109,9.71741,11.7048,1.00312
3.4,1.0372,1.0095,10.7006,9.70703,11.6944,1.00315
3.41,1.03752,1.00951,10.6902,9.69667,11.6841,1.00315
3.42,1.03786,1.0095,10.6798,9.68629,11.6737,1.00313
3.43,1.03821,1.00953,10.6694,9.67592,11.6633,1.00316
3.44,1.03853,1.00953,10.659,9.66555,11.6529,1.00317
3.45,1.03885,1.00953,10.6487,9.65517,11.6425,1.00315
3.46,1.03921,1.00957,10.6383,9.64478,11.6321,1.00318
3.47,1.03944,1.00957,10.6279,9.6344,11.6217,1.00318
3.48,1.03969,1.00956,10.6175,9.62401,11.6113,1.00316
3.49,1.03991,1.00959,10.6071,9.61363,11.6009,1.00319
3.5,1.04021,1.00959,10.5967,9.60324,11.5905,1.00319
3.51,1.04049,1.00959,10.5863,9.59283,11.5801,1.00316
3.52,1.04082,1.00962,10.5759,9.58242,11.5697,1.00319
3.53,1.04108,1.00962,10.5655,9.57201,11.5593,1.00319
3.54,1.04135,1.0096,10.5551,9.5616,11.5488,1.00317
3.55,1.04162,1.00963,10.5446,9.55119,11.5384,1.00319
3.56,1.04186,1.00962,10.5342,9.54078,11.528,1.00319
3.57,1.04212,1.0096,10.5238,9.53036,11.5176,1.00317
3.58,1.04242,1.00963,10.5134,9.51993,11.5072,1.0032
3.59,1.04289,1.00963,10.503,9.50952,11.4968,1.0032
3.6,1.04298,1.00961,10.4925,9.49909,11.4863,1.00317
3.61,1.0432,1.00964,10.4821,9.48868,11.4759,1.0032
3.62,1.04343,1.00964,10.4717,9.47826,11.4655,1.0032
3.63,1.04365,1.00964,10.4612,9.46783,11.455,1.00318
3.64,1.04396,1.00966,10.4508,9.45738,11.4446,1.00321
3.65,1.04422,1.00966,10.4403,9.44694,11.4342,1.00321
3.66,1.04443,1.00964,10.4299,9.43649,11.4237,1.00318
3.67,1.04472,1.00967,10.4195,9.42605,11.4133,1.00321
3.68,1.045,1.00967,10.409,9.41561,11.4028,1.00321
3.69,1.04527,1.00965,10.3986,9.40515,11.3923,1.00319
3.7,1.04556,1.00968,10.3881,9.39469,11.3819,1.00321
3.71,1.04578,1.00968,10.3776,9.38425,11.3714,1.00321
3.72,1.04596,1.00966,10.3672,9.37379,11.361,1.00319
3.73,1.04628,1.00969,10.3567,9.36334,11.3505,1.00322
3.74,1.04657,1.00968,10.3463,9.35288,11.3401,1.00322
3.75,1.0468,1.00968,10.3358,9.34241,11.3296,1.00319
3.76,1.04712,1.0097,10.3253,9.33192,11.3191,1.00322
