time,velocity,ratio,centerX,Xmax,Xmin,Ymax
0,0,0.999999,1.1,0.1,2.1,0.999999
0.01,0.0151916,1.00002,1.09993,0.0999715,2.09994,1.00001
0.02,0.0297197,1.00016,1.09972,0.0999463,2.09969,1.00003
0.03,0.0436625,1.00039,1.09937,0.0999081,2.09929,1.00008
0.04,0.0570509,1.00071,1.09889,0.0998583,2.09871,1.00013
0.05,0.0699901,1.00112,1.09827,0.099798,2.09798,1.00021
0.06,0.0824227,1.00162,1.09752,0.0997283,2.0971,1.0003
0.07,0.0941074,1.00221,1.09666,0.0996499,2.09606,1.00042
0.08,0.105624,1.00289,1.09568,0.0995639,2.09489,1.00054
0.09,0.116537,1.00364,1.09459,0.0994709,2.09358,1.00069
0.1,0.127343,1.00448,1.09339,0.0993714,2.09215,1.00085
0.11,0.137708,1.0054,1.09208,0.0992658,2.09058,1.00103
0.12,0.14779,1.00639,1.09067,0.0991549,2.08888,1.00122
0.13,0.157464,1.00747,1.08916,0.099039,2.08705,1.00143
0.14,0.166877,1.00867,1.08756,0.0989187,2.08508,1.00168
0.15,0.175669,1.00994,1.08586,0.0987945,2.08298,1.00196
0.16,0.184454,1.01131,1.08408,0.0986668,2.08075,1.00225
0.17,0.192819,1.01275,1.08221,0.0985361,2.0784,1.00255
0.18,0.200937,1.01425,1.08025,0.0984027,2.07595,1.00287
0.19,0.208124,1.01583,1.07822,0.098267,2.0734,1.0032
0.2,0.215841,1.01752,1.07612,0.0981295,2.07073,1.00357
0.21,0.223189,1.0193,1.07393,0.0979903,2.06794,1.00398
0.22,0.230266,1.02116,1.07168,0.0978499,2.06502,1.0044
0.23,0.236825,1.0231,1.06936,0.0977085,2.062,1.00484
0.24,0.243427,1.0251,1.06697,0.0975664,2.0589,1.00528
0.25,0.249698,1.02721,1.06451,0.0974238,2.05568,1.00577
0.26,0.255807,1.02943,1.062,0.0972811,2.05232,1.00629
0.27,0.26169,1.03173,1.05942,0.0971378,2.04887,1.00683
0.28,0.267141,1.03409,1.05679,0.0969941,2.04534,1.00738
0.29,0.272562,1.0365,1.0541,0.0968502,2.04176,1.00795
0.3,0.277738,1.03903,1.05136,0.0967066,2.03808,1.00858
0.31,0.282746,1.04165,1.04856,0.0965634,2.03431,1.00922
0.32,0.28727,1.04434,1.04572,0.0964209,2.03043,1.00988
0.33,0.291827,1.04709,1.04284,0.0962792,2.0265,1.01055
0.34,0.296054,1.04995,1.03991,0.0961385,2.02247,1.01128
0.35,0.300228,1.05291,1.03693,0.095999,2.01835,1.01204
0.36,0.304001,1.05595,1.03392,0.0958607,2.01414,1.0128
0.37,0.307817,1.05904,1.03087,0.0957237,2.00987,1.01358
0.38,0.311388,1.06227,1.02778,0.0955882,2.0055,1.01442
0.39,0.314801,1.06558,1.02465,0.0954542,2.00105,1.01528
0.4,0.318037,1.06896,1.0215,0.0953218,1.99652,1.01615
0.41,0.320948,1.07239,1.01831,0.095191,1.99194,1.01703
0.42,0.323787,1.07599,1.01509,0.095062,1.98725,1.01799
0.43,0.326533,1.07965,1.01185,0.0949348,1.9825,1.01895
0.44,0.329107,1.08334,1.00858,0.0948093,1.97774,1.01993
0.45,0.331413,1.08715,1.00528,0.0946857,1.97293,1.02097
0.46,0.333481,1.09106,1.00196,0.094564,1.96804,1.02204
0.47,0.335667,1.09502,0.998619,0.0944443,1.96311,1.02312
0.48,0.337499,1.0991,0.995258,0.0943264,1.9581,1.02423
0.49,0.339374,1.1033,0.991879,0.0942105,1.953,1.0254
0.5,0.341133,1.10756,0.988481,0.0940966,1.94786,1.02658
0.51,0.34268,1.1119,0.985066,0.0939845,1.94264,1.02776
0.52,0.344182,1.11641,0.981637,0.0938743,1.93733,1.02903
0.53,0.345319,1.12099,0.978194,0.0937661,1.93196,1.0303
0.54,0.346447,1.12565,0.974739,0.0936598,1.9265,1.03157
0.55,0.347588,1.13044,0.971273,0.0935551,1.92097,1.03289
0.56,0.348583,1.13529,0.967796,0.0934519,1.91544,1.03424
0.57,0.349451,1.14021,0.96431,0.09335,1.90986,1.0356
0.58,0.3502,1.14526,0.960815,0.0932496,1.90422,1.03701
0.59,0.350554,1.1504,0.957315,0.0931505,1.89854,1.03846
0.6,0.351027,1.15562,0.95381,0.0930528,1.8928,1.03991
0.61,0.351398,1.16094,0.950301,0.0929566,1.88702,1.0414
0.62,0.351667,1.16639,0.946788,0.092862,1.88119,1.04294
0.63,0.351912,1.17191,0.943273,0.0927689,1.8753,1.04448
0.64,0.35207,1.1775,0.939756,0.0926776,1.86937,1.04603
0.65,0.352011,1.18323,0.936238,0.0925879,1.86341,1.04765
0.66,0.351773,1.18903,0.932721,0.0924999,1.8574,1.04926
0.67,0.351574,1.19488,0.929207,0.0924136,1.8514,1.05088
0.68,0.351371,1.20086,0.925694,0.092329,1.84535,1.05257
0.69,0.351011,1.20694,0.922184,0.0922461,1.83928,1.05428
0.7,0.350628,1.21308,0.918678,0.0921647,1.83318,1.056
0.71,0.350118,1.21933,0.915176,0.092085,1.82703,1.05774
0.72,0.349658,1.22572,0.911679,0.0920069,1.82085,1.05954
0.73,0.348931,1.23219,0.908188,0.0919303,1.81463,1.06134
0.74,0.34825,1.23872,0.904704,0.0918554,1.80836,1.06313
0.75,0.347522,1.24537,0.901226,0.091782,1.80206,1.06496
0.76,0.34669,1.25216,0.897757,0.0917101,1.79568,1.06682
0.77,0.345836,1.25898,0.894296,0.0916398,1.78933,1.06868
0.78,0.344882,1.26589,0.890843,0.091571,1.78294,1.07054
0.79,0.343681,1.27294,0.887402,0.0915036,1.77655,1.07248
0.8,0.342374,1.28007,0.883972,0.0914377,1.77012,1.07442
0.81,0.341302,1.28727,0.880554,0.0913733,1.76367,1.07635
0.82,0.340142,1.29454,0.877148,0.0913103,1.75721,1.07829
0.83,0.338981,1.30195,0.873753,0.0912487,1.75072,1.08027
0.84,0.337798,1.30943,0.87037,0.0911884,1.7442,1.08225
0.85,0.336528,1.31699,0.867,0.0911295,1.73766,1.08423
0.86,0.335277,1.32464,0.863641,0.091072,1.7311,1.08622
0.87,0.333933,1.3324,0.860296,0.0910157,1.72457,1.08828
0.88,0.332543,1.34023,0.856964,0.0909606,1.71803,1.09032
0.89,0.331115,1.34811,0.853647,0.0909067,1.7115,1.09237
0.9,0.329669,1.35605,0.850343,0.0908539,1.70494,1.0944
0.91,0.328202,1.36412,0.847055,0.0908021,1.69838,1.09647
0.92,0.326682,1.37229,0.843781,0.0907514,1.69179,1.09855
0.93,0.32514,1.38054,0.840522,0.0907018,1.68519,1.10063
0.94,0.323457,1.38886,0.837279,0.0906533,1.67858,1.1027
0.95,0.321802,1.3973,0.834054,0.0906058,1.67193,1.1048
0.96,0.320153,1.40587,0.830844,0.0905594,1.66529,1.10693
0.97,0.318424,1.4145,0.827651,0.0905141,1.65865,1.10906
0.98,0.316726,1.42317,0.824476,0.0904698,1.65201,1.11116
0.99,0.315011,1.43191,0.821317,0.0904265,1.64537,1.11326
1,0.31321,1.44078,0.818177,0.0903841,1.6387,1.11539
1.01,0.311462,1.44977,0.815054,0.0903428,1.63206,1.11757
1.02,0.309704,1.45886,0.811948,0.0903024,1.62539,1.11974
1.03,0.307927,1.46802,0.80886,0.090263,1.61873,1.12191
1.04,0.30605,1.47727,0.80579,0.0902244,1.61206,1.12408
1.05,0.3042,1.48656,0.802739,0.0901868,1.6054,1.12623
1.06,0.302357,1.49597,0.799706,0.09015,1.59878,1.12843
1.07,0.300558,1.50545,0.796691,0.0901141,1.59216,1.13062
1.08,0.298693,1.51498,0.793695,0.0900791,1.58555,1.13281
1.09,0.296874,1.52458,0.790718,0.0900448,1.57895,1.13498
1.1,0.295009,1.53427,0.787758,0.0900114,1.57235,1.13715
1.11,0.293114,1.54405,0.784818,0.0899788,1.56576,1.13934
1.12,0.291238,1.55395,0.781896,0.0899469,1.55916,1.14154
1.13,0.289312,1.5639,0.778993,0.0899158,1.55258,1.14374
1.14,0.287456,1.57397,0.776109,0.0898854,1.54598,1.14592
1.15,0.285564,1.58408,0.773244,0.0898557,1.53941,1.14811
1.16,0.283605,1.59427,0.770398,0.0898268,1.53285,1.15028
1.17,0.281703,1.60452,0.767572,0.0897985,1.52631,1.15245
1.18,0.27973,1.61493,0.764764,0.0897709,1.51978,1.15468
1.19,0.277884,1.6254,0.761976,0.0897439,1.51325,1.15688
1.2,0.275949,1.63591,0.759207,0.0897176,1.50675,1.15907
1.21,0.274084,1.64651,0.756456,0.0896919,1.50025,1.16125
1.22,0.27215,1.65718,0.753725,0.0896668,1.49377,1.16343
1.23,0.270332,1.66791,0.751012,0.0896422,1.48731,1.1656
1.24,0.26839,1.67876,0.748318,0.0896182,1.48086,1.16778
1.25,0.266518,1.6897,0.745643,0.0895948,1.47445,1.17
1.26,0.264702,1.7007,0.742987,0.0895719,1.46806,1.1722
1.27,0.262872,1.71173,0.740349,0.0895496,1.4617,1.17438
1.28,0.261033,1.72284,0.73773,0.0895278,1.45536,1.17655
1.29,0.25924,1.73402,0.735128,0.0895065,1.44904,1.17873
1.3,0.257366,1.74527,0.732545,0.0894857,1.44274,1.1809
1.31,0.255566,1.7566,0.729981,0.0894654,1.43645,1.18306
1.32,0.253744,1.76807,0.727434,0.0894456,1.43019,1.18526
1.33,0.251912,1.77964,0.724906,0.0894263,1.42394,1.18747
1.34,0.250123,1.79125,0.722396,0.0894074,1.4177,1.18965
1.35,0.248353,1.80291,0.719903,0.089389,1.41149,1.19182
1.36,0.246593,1.81465,0.717428,0.089371,1.4053,1.19398
1.37,0.244808,1.82645,0.714971,0.0893534,1.39914,1.19613
1.38,0.243045,1.83832,0.712532,0.0893363,1.39299,1.19827
1.39,0.241269,1.85026,0.710111,0.0893196,1.38687,1.20041
1.4,0.239514,1.8623,0.707706,0.0893032,1.38078,1.20256
1.41,0.237743,1.87444,0.70532,0.0892873,1.37471,1.20472
1.42,0.235943,1.88664,0.702951,0.0892717,1.36865,1.20687
1.43,0.234164,1.89893,0.7006,0.0892565,1.36262,1.20901
1.44,0.232436,1.91128,0.698268,0.0892416,1.35661,1.21115
1.45,0.230711,1.92368,0.695952,0.0892271,1.35064,1.21327
1.46,0.228978,1.93614,0.693653,0.089213,1.3447,1.21539
1.47,0.227289,1.94865,0.691372,0.0891992,1.33879,1.21751
1.48,0.225594,1.9612,0.689107,0.0891857,1.33291,1.2196
1.49,0.223927,1.97382,0.68686,0.0891726,1.32705,1.22168
1.5,0.222245,1.98658,0.684629,0.0891597,1.32123,1.2238
1.51,0.220581,1.9994,0.682414,0.0891472,1.31543,1.22592
1.52,0.218925,2.01229,0.680217,0.089135,1.30966,1.22802
1.53,0.217282,2.02523,0.678035,0.089123,1.30392,1.23012
1.54,0.215602,2.03824,0.67587,0.0891114,1.2982,1.23221
1.55,0.213945,2.05132,0.673723,0.0891,1.29251,1.23429
1.56,0.212341,2.06441,0.671591,0.089089,1.28685,1.23634
1.57,0.210748,2.07758,0.669475,0.0890782,1.28122,1.23839
1.58,0.209178,2.09081,0.667376,0.0890676,1.27562,1.24043
1.59,0.20762,2.10412,0.665291,0.0890573,1.27005,1.24247
1.6,0.206048,2.11758,0.663223,0.0890473,1.26451,1.24456
1.61,0.204507,2.13111,0.66117,0.0890375,1.25899,1.24665
1.62,0.20296,2.1447,0.659132,0.0890279,1.25351,1.24873
1.63,0.201343,2.15834,0.657111,0.0890186,1.24806,1.2508
1.64,0.19974,2.172,0.655105,0.0890095,1.24263,1.25284
1.65,0.198286,2.18572,0.653114,0.0890007,1.23724,1.25487
1.66,0.196807,2.1995,0.65114,0.088992,1.23188,1.25689
1.67,0.19532,2.21333,0.649179,0.0889836,1.22655,1.25891
1.68,0.193871,2.22721,0.647232,0.0889754,1.22126,1.26092
1.69,0.192362,2.24115,0.645302,0.0889675,1.21599,1.26292
1.7,0.190907,2.25515,0.643386,0.0889597,1.21076,1.26491
1.71,0.189488,2.2692,0.641483,0.0889521,1.20556,1.2669
1.72,0.188089,2.28336,0.639596,0.0889448,1.20039,1.26891
1.73,0.186641,2.29758,0.637722,0.0889376,1.19525,1.27092
1.74,0.185268,2.31185,0.635862,0.0889306,1.19014,1.27292
1.75,0.183896,2.32617,0.634017,0.0889238,1.18507,1.27491
1.76,0.182485,2.34054,0.632186,0.0889172,1.18003,1.27689
1.77,0.181114,2.35491,0.630366,0.0889108,1.17504,1.27887
1.78,0.179779,2.36928,0.628563,0.0889045,1.17011,1.28084
1.79,0.178373,2.38359,0.626773,0.0888984,1.16524,1.28278
1.8,0.177079,2.39787,0.624994,0.0888925,1.16044,1.28472
1.81,0.175687,2.41212,0.62323,0.0888867,1.15571,1.28665
1.82,0.174424,2.42633,0.621482,0.0888811,1.15104,1.28857
1.83,0.173117,2.44052,0.619743,0.0888757,1.14643,1.29049
1.84,0.171798,2.45476,0.618016,0.0888704,1.14188,1.29244
1.85,0.170527,2.46897,0.616308,0.0888652,1.13739,1.29439
1.86,0.169229,2.48315,0.614609,0.0888602,1.13297,1.29633
1.87,0.167966,2.49727,0.612921,0.0888554,1.12859,1.29825
1.88,0.166669,2.51136,0.611247,0.0888506,1.12428,1.30017
1.89,0.165475,2.52543,0.60959,0.0888461,1.12002,1.30208
1.9,0.164108,2.53946,0.607941,0.0888416,1.11582,1.30399
1.91,0.162819,2.55347,0.606304,0.0888373,1.11167,1.30589
1.92,0.161579,2.56746,0.604684,0.0888331,1.10757,1.30778
1.93,0.160347,2.58142,0.603077,0.0888291,1.10352,1.30967
1.94,0.159192,2.59534,0.601477,0.0888251,1.09952,1.31155
1.95,0.157921,2.60923,0.599889,0.0888213,1.09556,1.31341
1.96,0.156816,2.62305,0.598319,0.0888176,1.09166,1.31525
1.97,0.155661,2.63684,0.596759,0.088814,1.08781,1.31709
1.98,0.15452,2.6507,0.595206,0.0888106,1.08399,1.31896
1.99,0.153399,2.6645,0.593664,0.0888072,1.08023,1.32082
2,0.152284,2.6783,0.592138,0.088804,1.07651,1.32268
2.01,0.151186,2.69206,0.590623,0.0888009,1.07283,1.32454
2.02,0.150084,2.70579,0.589116,0.0887978,1.0692,1.32638
2.03,0.149019,2.7195,0.587618,0.0887949,1.0656,1.32822
2.04,0.147961,2.73311,0.586134,0.088792,1.06206,1.33002
2.05,0.146842,2.74673,0.584664,0.0887893,1.05854,1.33183
2.06,0.145795,2.7603,0.5832,0.0887867,1.05508,1.33363
2.07,0.144761,2.77386,0.581746,0.0887841,1.05164,1.33542
2.08,0.143571,2.78738,0.580302,0.0887817,1.04825,1.33721
2.09,0.14257,2.80087,0.578875,0.0887793,1.0449,1.33898
2.1,0.141526,2.81434,0.577456,0.0887771,1.04158,1.34075
2.11,0.140534,2.82776,0.576045,0.0887749,1.0383,1.34252
2.12,0.139515,2.84117,0.574643,0.0887728,1.03505,1.34427
2.13,0.138509,2.85447,0.573252,0.0887708,1.03185,1.346
2.14,0.137491,2.86788,0.571876,0.0887689,1.02867,1.34777
2.15,0.136541,2.88124,0.570507,0.088767,1.02554,1.34953
2.16,0.135557,2.89457,0.569146,0.0887653,1.02243,1.35129
2.17,0.134398,2.90789,0.567794,0.0887636,1.01936,1.35303
2.18,0.133475,2.92113,0.566453,0.088762,1.01633,1.35477
2.19,0.132525,2.93438,0.565127,0.0887604,1.01332,1.35651
2.2,0.131571,2.94757,0.563809,0.0887589,1.01035,1.35823
2.21,0.130607,2.96071,0.562497,0.0887576,1.00742,1.35994
2.22,0.129694,2.97384,0.561194,0.0887562,1.0045,1.36164
2.23,0.128775,2.98688,0.559901,0.088755,1.00163,1.36333
2.24,0.127726,2.99993,0.55862,0.0887538,0.998784,1.36501
2.25,0.126803,3.01297,0.557351,0.0887527,0.995961,1.3667
2.26,0.125904,3.02592,0.556087,0.0887516,0.993188,1.36838
2.27,0.125046,3.03888,0.554831,0.0887506,0.990429,1.37005
2.28,0.124074,3.05184,0.553584,0.0887497,0.987695,1.37172
2.29,0.123232,3.06471,0.552348,0.0887488,0.985004,1.37338
2.3,0.122394,3.07759,0.551123,0.088748,0.982328,1.37504
2.31,0.121514,3.09048,0.549906,0.0887472,0.979676,1.3767
2.32,0.120669,3.1033,0.548695,0.0887465,0.977068,1.37836
2.33,0.119774,3.11613,0.547492,0.0887459,0.974473,1.38002
2.34,0.118957,3.12895,0.546297,0.0887453,0.971898,1.38167
2.35,0.118165,3.14167,0.545111,0.0887447,0.96937,1.38332
2.36,0.117336,3.15439,0.543936,0.0887442,0.966855,1.38495
2.37,0.116498,3.16713,0.542769,0.0887438,0.964353,1.38658
2.38,0.115686,3.17975,0.541609,0.0887434,0.961899,1.38821
2.39,0.114928,3.19236,0.540455,0.0887431,0.959462,1.38982
2.4,0.114087,3.20496,0.539308,0.0887428,0.957037,1.39143
2.41,0.113304,3.21748,0.53817,0.0887426,0.954646,1.39302
2.42,0.112553,3.22995,0.537044,0.0887424,0.952284,1.3946
2.43,0.111703,3.24243,0.535925,0.0887423,0.949935,1.39618
2.44,0.110984,3.25491,0.534813,0.0887422,0.947599,1.39775
2.45,0.110231,3.26727,0.533707,0.0887421,0.94531,1.39932
2.46,0.109433,3.27963,0.532608,0.0887421,0.943034,1.40088
2.47,0.108694,3.29199,0.531516,0.0887422,0.94077,1.40243
2.48,0.107912,3.30431,0.530432,0.0887422,0.93853,1.40398
2.49,0.107161,3.31655,0.52936,0.0887424,0.936326,1.40553
2.5,0.106383,3.32883,0.528294,0.0887425,0.934132,1.40708
2.51,0.105695,3.34114,0.527235,0.0887427,0.93195,1.40864
2.52,0.105011,3.35338,0.526182,0.088743,0.929796,1.41019
2.53,0.104307,3.36556,0.525134,0.0887433,0.927671,1.41173
2.54,0.103592,3.37774,0.524094,0.0887436,0.925557,1.41327
2.55,0.102903,3.38991,0.523061,0.088744,0.923454,1.4148
2.56,0.102252,3.40203,0.522037,0.0887444,0.921376,1.41632
2.57,0.101562,3.41407,0.521021,0.0887449,0.919327,1.41783
2.58,0.100874,3.42611,0.52001,0.0887454,0.917289,1.41934
2.59,0.100249,3.43816,0.519005,0.0887459,0.915261,1.42084
2.6,0.0995862,3.45016,0.518006,0.0887465,0.91325,1.42233
2.61,0.0989242,3.46203,0.517012,0.0887471,0.911276,1.42381
2.62,0.0982713,3.47391,0.516026,0.0887477,0.909311,1.42528
2.63,0.097608,3.48579,0.515046,0.0887484,0.907356,1.42675
2.64,0.0969594,3.49767,0.514075,0.0887491,0.905411,1.42821
2.65,0.0963237,3.50945,0.513111,0.0887498,0.9035,1.42966
2.66,0.0956936,3.52119,0.512153,0.0887506,0.901606,1.43111
2.67,0.0950368,3.53294,0.511199,0.0887513,0.899721,1.43255
2.68,0.094426,3.54469,0.510251,0.0887522,0.897845,1.43399
2.69,0.0937665,3.55642,0.509309,0.088753,0.895983,1.43542
2.7,0.0931548,3.56806,0.508373,0.0887539,0.894158,1.43686
2.71,0.0925467,3.57974,0.507443,0.0887548,0.892341,1.43831
2.72,0.0919379,3.5914,0.506522,0.0887557,0.890534,1.43975
2.73,0.0913407,3.60306,0.505608,0.0887567,0.888734,1.44118
2.74,0.0907427,3.61469,0.504699,0.0887576,0.88695,1.44261
2.75,0.0901549,3.6262,0.503795,0.0887587,0.885198,1.44402
2.76,0.0895705,3.6377,0.502896,0.0887597,0.883456,1.44544
2.77,0.0889841,3.6492,0.502003,0.0887607,0.881722,1.44684
2.78,0.0883983,3.6607,0.501114,0.0887618,0.879997,1.44824
2.79,0.0878195,3.67218,0.500232,0.0887629,0.878282,1.44963
2.8,0.0872572,3.68353,0.499356,0.0887641,0.876603,1.45101
2.81,0.0867054,3.69487,0.498487,0.0887652,0.874931,1.45239
2.82,0.086139,3.70619,0.497625,0.0887664,0.873267,1.45376
2.83,0.0855925,3.7175,0.496768,0.0887676,0.871611,1.45511
2.84,0.0850682,3.72879,0.495915,0.0887688,0.869963,1.45646
2.85,0.0845288,3.74001,0.495067,0.0887701,0.868338,1.4578
2.86,0.0839992,3.75116,0.494224,0.0887713,0.866734,1.45913
2.87,0.0834773,3.7623,0.493386,0.0887726,0.865137,1.46046
2.88,0.0829355,3.77344,0.492552,0.088774,0.863547,1.46178
2.89,0.0824214,3.78457,0.491725,0.0887753,0.861965,1.46309
2.9,0.0818937,3.7957,0.490903,0.0887767,0.86039,1.4644
2.91,0.0813742,3.80674,0.490088,0.088778,0.858838,1.46571
2.92,0.0808539,3.81776,0.489279,0.0887794,0.857303,1.46702
2.93,0.0803285,3.82884,0.488474,0.0887809,0.855775,1.46835
2.94,0.0798116,3.83988,0.487674,0.0887823,0.854253,1.46966
2.95,0.0793077,3.85092,0.486879,0.0887838,0.852738,1.47096
2.96,0.0788015,3.86196,0.486087,0.0887853,0.851229,1.47226
2.97,0.0782994,3.8729,0.485301,0.0887868,0.849745,1.47356
2.98,0.0778024,3.88378,0.484519,0.0887883,0.848277,1.47484
2.99,0.0773102,3.89465,0.483742,0.0887898,0.846816,1.47612
3,0.076816,3.90551,0.48297,0.0887914,0.845362,1.4774
3.01,0.0763301,3.91636,0.482205,0.088793,0.843915,1.47866
3.02,0.0758381,3.9272,0.481446,0.0887946,0.842474,1.47992
3.03,0.0753505,3.93803,0.480692,0.0887962,0.841041,1.48118
3.04,0.0748838,3.94871,0.479942,0.0887978,0.839639,1.48243
3.05,0.0744043,3.95939,0.479196,0.0887995,0.838243,1.48367
3.06,0.0739254,3.97005,0.478454,0.0888011,0.836853,1.4849
3.07,0.0734599,3.98067,0.477716,0.0888028,0.835471,1.48612
3.08,0.073024,3.99129,0.476983,0.0888045,0.834094,1.48733
3.09,0.0725654,4.00189,0.476254,0.0888063,0.832725,1.48854
3.1,0.0720979,4.01246,0.47553,0.088808,0.831366,1.48974
3.11,0.071653,4.02293,0.474811,0.0888098,0.830031,1.49094
3.12,0.0712134,4.03338,0.474096,0.0888116,0.828703,1.49213
3.13,0.0707684,4.04383,0.473389,0.0888134,0.827381,1.49332
3.14,0.070319,4.05427,0.472685,0.0888152,0.826065,1.4945
3.15,0.0698943,4.06471,0.471986,0.088817,0.824755,1.49569
3.16,0.0694519,4.07523,0.47129,0.0888188,0.823451,1.4969
3.17,0.0690492,4.08574,0.470597,0.0888207,0.822153,1.4981
3.18,0.0686249,4.09618,0.469909,0.0888226,0.820871,1.4993
3.19,0.0679963,4.10654,0.469224,0.0888245,0.819606,1.50049
3.2,0.0675567,4.11683,0.468545,0.0888264,0.818349,1.50166
3.21,0.067184,4.12709,0.467871,0.0888283,0.817098,1.50282
3.22,0.0667904,4.13734,0.4672,0.0888302,0.815854,1.50397
3.23,0.0664247,4.14758,0.466533,0.0888322,0.814615,1.50512
3.24,0.0660584,4.1578,0.465871,0.0888342,0.813382,1.50626
3.25,0.0656856,4.16801,0.465214,0.0888362,0.812154,1.5074
3.26,0.0653097,4.17821,0.464561,0.0888382,0.810931,1.50853
3.27,0.0649497,4.1883,0.463912,0.0888402,0.80973,1.50965
3.28,0.0645629,4.19837,0.463266,0.0888422,0.808537,1.51077
3.29,0.0642006,4.20843,0.462622,0.0888442,0.807349,1.51189
3.3,0.0638256,4.21847,0.461982,0.0888463,0.806166,1.513
3.31,0.0634487,4.2285,0.461346,0.0888484,0.804988,1.5141
3.32,0.063092,4.23852,0.460712,0.0888505,0.803815,1.5152
3.33,0.0627346,4.24851,0.460082,0.0888526,0.802647,1.51628
3.34,0.0623507,4.25847,0.459456,0.0888547,0.801485,1.51736
3.35,0.0620026,4.26842,0.458834,0.0888568,0.800328,1.51843
3.36,0.0616264,4.27829,0.458215,0.0888589,0.799187,1.51949
3.37,0.0613007,4.28811,0.4576,0.0888611,0.798056,1.52055
3.38,0.0609536,4.2979,0.456989,0.0888633,0.796931,1.5216
3.39,0.060615,4.30771,0.456384,0.0888654,0.795808,1.52265
3.4,0.0602677,4.31749,0.455781,0.0888676,0.794691,1.5237
3.41,0.0599188,4.32737,0.455182,0.0888698,0.79358,1.52477
3.42,0.059586,4.33723,0.454585,0.088872,0.792473,1.52584
3.43,0.0592312,4.34707,0.453991,0.0888743,0.791371,1.5269
3.44,0.0588958,4.3569,0.4534,0.0888765,0.790274,1.52796
3.45,0.058539,4.36671,0.452813,0.0888787,0.789182,1.52901
3.46,0.0582238,4.37648,0.452228,0.088881,0.788099,1.53006
3.47,0.0578876,4.38616,0.451647,0.0888833,0.787032,1.5311
3.48,0.0575678,4.39581,0.451069,0.0888855,0.78597,1.53213
3.49,0.0572288,4.40544,0.450494,0.0888878,0.784913,1.53315
3.5,0.0569248,4.41505,0.449922,0.0888901,0.783861,1.53417
3.51,0.0565874,4.42465,0.449354,0.0888924,0.782813,1.53518
