time,velocity,ratio,centerX,Xmax,Xmin,Ymax
0,0,1,21,20,22,1
0.01,0.0195949,1,20.9999,19.9999,21.9999,1
0.02,0.0386049,1,20.9996,19.9996,21.9996,0.999999
0.03,0.0569832,1.00001,20.9991,19.9991,21.9991,0.999998
0.04,0.0748219,1.00001,20.9985,19.9985,21.9985,1
0.05,0.0921331,1.00003,20.9976,19.9977,21.9976,1.00001
0.06,0.108996,1.00005,20.9966,19.9967,21.9966,1.00001
0.07,0.125392,1.00006,20.9955,19.9955,21.9954,1.00001
0.08,0.141358,1.00008,20.9941,19.9942,21.9941,1.00001
0.09,0.156909,1.00009,20.9927,19.9927,21.9926,1.00001
0.1,0.172098,1.00013,20.991,19.9911,21.9909,1.00002
0.11,0.187003,1.00018,20.9892,19.9894,21.9891,1.00004
0.12,0.201458,1.00023,20.9873,19.9875,21.9871,1.00006
0.13,0.215454,1.00026,20.9852,19.9854,21.985,1.00008
0.14,0.229158,1.00029,20.983,19.9832,21.9828,1.00009
0.15,0.242536,1.00032,20.9806,19.9809,21.9804,1.00011
0.16,0.255549,1.00038,20.9781,19.9784,21.9779,1.00012
0.17,0.268263,1.00045,20.9755,19.9758,21.9752,1.00015
0.18,0.280712,1.00054,20.9728,19.9731,21.9724,1.00018
0.19,0.292869,1.00063,20.9699,19.9703,21.9695,1.0002
0.2,0.304737,1.00071,20.9669,19.9674,21.9664,1.00022
0.21,0.316305,1.00076,20.9638,19.9643,21.9633,1.00024
0.22,0.327582,1.00083,20.9606,19.9612,21.96,1.00025
0.23,0.33867,1.00095,20.9573,19.9579,21.9566,1.0003
0.24,0.349492,1.00107,20.9538,19.9545,21.9531,1.00034
0.25,0.360031,1.00117,20.9503,19.9511,21.9495,1.00036
0.26,0.370316,1.00122,20.9466,19.9475,21.9458,1.00038
0.27,0.380236,1.00131,20.9429,19.9438,21.942,1.00042
0.28,0.390229,1.00141,20.939,19.94,21.9381,1.00046
0.29,0.399958,1.00151,20.9351,19.9361,21.934,1.00049
0.3,0.409405,1.00158,20.931,19.9321,21.9299,1.0005
0.31,0.418684,1.00166,20.9269,19.928,21.9258,1.00054
0.32,0.427754,1.00175,20.9227,19.9238,21.9215,1.00058
0.33,0.436618,1.00184,20.9183,19.9196,21.9171,1.0006
0.34,0.445305,1.00188,20.9139,19.9152,21.9127,1.0006
0.35,0.453861,1.00197,20.9094,19.9108,21.9081,1.00065
0.36,0.462285,1.00206,20.9049,19.9062,21.9035,1.00068
0.37,0.47049,1.00212,20.9002,19.9016,21.8988,1.00069
0.38,0.478465,1.00219,20.8954,19.8969,21.894,1.00072
0.39,0.486384,1.00227,20.8906,19.8922,21.8891,1.00075
0.4,0.494086,1.00234,20.8857,19.8873,21.8842,1.00076
0.41,0.501636,1.00239,20.8807,19.8824,21.8792,1.00077
0.42,0.50903,1.00245,20.8757,19.8774,21.8741,1.00081
0.43,0.516307,1.00251,20.8706,19.8723,21.8689,1.00082
0.44,0.523428,1.00255,20.8654,19.8671,21.8637,1.00083
0.45,0.530603,1.0026,20.8601,19.8619,21.8584,1.00087
0.46,0.537482,1.00266,20.8548,19.8566,21.853,1.00088
0.47,0.544207,1.00271,20.8494,19.8512,21.8476,1.00089
0.48,0.550881,1.00277,20.8439,19.8458,21.8421,1.00092
0.49,0.557385,1.00282,20.8383,19.8402,21.8365,1.00093
0.5,0.563676,1.00289,20.8327,19.8347,21.8308,1.00095
0.51,0.570005,1.00295,20.8271,19.8291,21.8251,1.00098
0.52,0.576127,1.003,20.8213,19.8234,21.8193,1.00098
0.53,0.582198,1.00308,20.8155,19.8176,21.8135,1.00101
0.54,0.588164,1.00314,20.8097,19.8118,21.8076,1.00103
0.55,0.593977,1.00319,20.8038,19.806,21.8017,1.00103
0.56,0.599723,1.00325,20.7978,19.8,21.7957,1.00107
0.57,0.605291,1.00331,20.7918,19.794,21.7896,1.00109
0.58,0.610891,1.00338,20.7857,19.788,21.7835,1.00111
0.59,0.616353,1.00344,20.7796,19.7819,21.7773,1.00114
0.6,0.621712,1.00348,20.7734,19.7757,21.7711,1.00114
0.61,0.627022,1.00356,20.7671,19.7695,21.7648,1.00118
0.62,0.632189,1.00362,20.7609,19.7633,21.7585,1.0012
0.63,0.637237,1.0037,20.7545,19.757,21.7521,1.00122
0.64,0.642246,1.00377,20.7481,19.7507,21.7456,1.00124
0.65,0.647078,1.00381,20.7417,19.7443,21.7391,1.00124
0.66,0.651911,1.00388,20.7352,19.7378,21.7327,1.00128
0.67,0.656655,1.00393,20.7286,19.7313,21.7261,1.00129
0.68,0.661387,1.004,20.722,19.7248,21.7194,1.00132
0.69,0.666018,1.00406,20.7154,19.7182,21.7127,1.00134
0.7,0.67059,1.00411,20.7087,19.7115,21.706,1.00135
0.71,0.675127,1.00417,20.702,19.7048,21.6993,1.00138
0.72,0.679501,1.0042,20.6952,19.6981,21.6924,1.00137
0.73,0.683961,1.00427,20.6884,19.6913,21.6856,1.00142
0.74,0.688238,1.0043,20.6815,19.6845,21.6787,1.00141
0.75,0.692503,1.00435,20.6746,19.6776,21.6718,1.00144
0.76,0.696712,1.00438,20.6677,19.6707,21.6648,1.00145
0.77,0.700832,1.00443,20.6607,19.6637,21.6578,1.00146
0.78,0.704994,1.00448,20.6537,19.6567,21.6507,1.00148
0.79,0.708994,1.00451,20.6466,19.6496,21.6436,1.00148
0.8,0.713012,1.00456,20.6395,19.6426,21.6365,1.00151
0.81,0.716824,1.00459,20.6324,19.6354,21.6293,1.0015
0.82,0.720659,1.00466,20.6252,19.6283,21.6221,1.00154
0.83,0.724366,1.00466,20.6179,19.6211,21.6149,1.00153
0.84,0.728105,1.00471,20.6107,19.6139,21.6076,1.00157
0.85,0.731788,1.00472,20.6034,19.6066,21.6003,1.00156
0.86,0.735446,1.00479,20.596,19.5993,21.5929,1.00159
0.87,0.739014,1.00482,20.5887,19.5919,21.5855,1.00159
0.88,0.742539,1.00488,20.5813,19.5846,21.5781,1.00162
0.89,0.745998,1.00492,20.5738,19.5771,21.5706,1.00163
0.9,0.749413,1.00497,20.5663,19.5697,21.5631,1.00165
0.91,0.752885,1.00501,20.5588,19.5622,21.5555,1.00166
0.92,0.756216,1.00505,20.5513,19.5547,21.548,1.00167
0.93,0.759501,1.00508,20.5437,19.5471,21.5404,1.00169
0.94,0.762744,1.00513,20.5361,19.5396,21.5327,1.0017
0.95,0.765927,1.00518,20.5285,19.5319,21.5251,1.00172
0.96,0.76906,1.00522,20.5208,19.5243,21.5173,1.00173
0.97,0.772167,1.00528,20.5131,19.5166,21.5096,1.00176
0.98,0.775163,1.00532,20.5053,19.5089,21.5018,1.00176
0.99,0.778412,1.00539,20.4976,19.5012,21.494,1.00179
1,0.781243,1.00542,20.4898,19.4934,21.4862,1.00179
1.01,0.784124,1.00546,20.4819,19.4856,21.4784,1.00181
1.02,0.786993,1.0055,20.4741,19.4778,21.4705,1.00182
1.03,0.789841,1.00557,20.4662,19.47,21.4626,1.00184
1.04,0.792622,1.0056,20.4583,19.4621,21.4546,1.00185
1.05,0.795413,1.00566,20.4504,19.4542,21.4466,1.00187
1.06,0.798102,1.00569,20.4424,19.4462,21.4387,1.00188
1.07,0.800871,1.00574,20.4344,19.4383,21.4306,1.0019
1.08,0.803566,1.00576,20.4264,19.4303,21.4226,1.00191
1.09,0.806228,1.0058,20.4183,19.4223,21.4146,1.00193
1.1,0.808832,1.00583,20.4103,19.4142,21.4065,1.00194
1.11,0.811329,1.00587,20.4022,19.4061,21.3983,1.00195
1.12,0.813874,1.00591,20.394,19.398,21.3902,1.00196
1.13,0.816365,1.00595,20.3859,19.3899,21.382,1.00197
1.14,0.818907,1.006,20.3777,19.3818,21.3738,1.00199
1.15,0.82135,1.00602,20.3695,19.3736,21.3656,1.00199
1.16,0.82379,1.00605,20.3613,19.3654,21.3573,1.00201
1.17,0.826155,1.00606,20.353,19.3572,21.3491,1.002
1.18,0.828544,1.00612,20.3448,19.3489,21.3408,1.00203
1.19,0.830854,1.00612,20.3365,19.3406,21.3324,1.00201
1.2,0.833187,1.00618,20.3281,19.3323,21.3241,1.00205
1.21,0.835433,1.00618,20.3198,19.324,21.3157,1.00203
1.22,0.837686,1.00625,20.3114,19.3156,21.3073,1.00207
1.23,0.839869,1.00624,20.303,19.3073,21.299,1.00206
1.24,0.842076,1.00627,20.2946,19.2989,21.2906,1.00208
1.25,0.844258,1.00628,20.2862,19.2905,21.2821,1.00208
1.26,0.846413,1.00632,20.2777,19.282,21.2736,1.0021
1.27,0.848521,1.00634,20.2693,19.2736,21.2651,1.00211
1.28,0.850723,1.00638,20.2608,19.2651,21.2566,1.00211
1.29,0.852808,1.00642,20.2523,19.2566,21.2481,1.00213
1.3,0.85472,1.00644,20.2437,19.2481,21.2395,1.00212
1.31,0.856727,1.00648,20.2352,19.2396,21.231,1.00215
1.32,0.858731,1.00647,20.2266,19.231,21.2224,1.00213
1.33,0.860753,1.00654,20.218,19.2224,21.2137,1.00217
1.34,0.862703,1.00655,20.2094,19.2138,21.2051,1.00216
1.35,0.864699,1.0066,20.2007,19.2052,21.1964,1.00219
1.36,0.866668,1.00662,20.1921,19.1966,21.1878,1.00219
1.37,0.868593,1.00666,20.1834,19.1879,21.1791,1.0022
1.38,0.8705,1.00667,20.1747,19.1792,21.1704,1.00222
1.39,0.872354,1.00668,20.166,19.1705,21.1617,1.00221
1.4,0.874221,1.00673,20.1573,19.1618,21.1529,1.00224
1.41,0.876028,1.00673,20.1485,19.1531,21.1441,1.00222
1.42,0.877926,1.00679,20.1397,19.1443,21.1353,1.00226
1.43,0.879649,1.00681,20.131,19.1356,21.1265,1.00225
1.44,0.881406,1.00688,20.1221,19.1268,21.1177,1.00228
1.45,0.883124,1.00688,20.1133,19.118,21.1089,1.00228
1.46,0.884864,1.00691,20.1045,19.1092,21.1,1.00229
1.47,0.886584,1.00695,20.0956,19.1003,21.0911,1.00231
1.48,0.888263,1.00695,20.0868,19.0915,21.0822,1.00229
1.49,0.889838,1.00701,20.0779,19.0826,21.0733,1.00232
1.5,0.891444,1.00701,20.069,19.0737,21.0644,1.00231
1.51,0.892947,1.00706,20.06,19.0648,21.0554,1.00234
1.52,0.894611,1.00706,20.0511,19.0559,21.0465,1.00234
1.53,0.896216,1.00708,20.0421,19.0469,21.0375,1.00235
1.54,0.897847,1.0071,20.0332,19.038,21.0286,1.00236
1.55,0.899374,1.0071,20.0242,19.029,21.0195,1.00235
1.56,0.900954,1.00715,20.0152,19.02,21.0105,1.00238
1.57,0.902475,1.00715,20.0062,19.011,21.0015,1.00237
1.58,0.904195,1.00721,19.9971,19.002,20.9924,1.00239
1.59,0.905516,1.00722,19.9881,18.993,20.9834,1.0024
1.6,0.906945,1.00724,19.979,18.9839,20.9743,1.0024
1.61,0.908398,1.00728,19.97,18.9749,20.9652,1.00242
1.62,0.909802,1.00727,19.9609,18.9658,20.9561,1.00239
1.63,0.911246,1.00733,19.9518,18.9567,20.947,1.00243
1.64,0.912634,1.00734,19.9426,18.9476,20.9379,1.00243
1.65,0.914048,1.00738,19.9335,18.9385,20.9287,1.00244
1.66,0.915423,1.00739,19.9244,18.9294,20.9196,1.00246
1.67,0.916803,1.0074,19.9152,18.9202,20.9104,1.00245
1.68,0.918208,1.00745,19.906,18.9111,20.9012,1.00248
1.69,0.919728,1.00744,19.8968,18.9019,20.892,1.00247
1.7,0.921118,1.00749,19.8876,18.8927,20.8828,1.00249
1.71,0.922485,1.00751,19.8784,18.8835,20.8736,1.00249
1.72,0.923805,1.00753,19.8692,18.8743,20.8643,1.00249
1.73,0.925114,1.00756,19.8599,18.8651,20.8551,1.00251
1.74,0.926379,1.00755,19.8507,18.8558,20.8458,1.00249
1.75,0.927668,1.0076,19.8414,18.8466,20.8365,1.00252
1.76,0.928925,1.00761,19.8321,18.8373,20.8272,1.00252
1.77,0.93009,1.00763,19.8228,18.828,20.8179,1.00252
1.78,0.931309,1.00766,19.8135,18.8187,20.8085,1.00254
1.79,0.932632,1.00764,19.8042,18.8094,20.7992,1.00252
1.8,0.933824,1.00768,19.7949,18.8001,20.7899,1.00255
1.81,0.935057,1.00768,19.7855,18.7907,20.7806,1.00255
1.82,0.936271,1.0077,19.7762,18.7814,20.7712,1.00255
1.83,0.937451,1.00772,19.7668,18.772,20.7618,1.00257
1.84,0.938606,1.00771,19.7574,18.7627,20.7524,1.00255
1.85,0.939785,1.00778,19.748,18.7533,20.743,1.00258
1.86,0.940764,1.00777,19.7386,18.7439,20.7336,1.00258
1.87,0.941866,1.00779,19.7292,18.7345,20.7242,1.00258
1.88,0.943023,1.00782,19.7198,18.7251,20.7148,1.0026
1.89,0.944128,1.00782,19.7104,18.7157,20.7053,1.00258
1.9,0.945296,1.00786,19.7009,18.7063,20.6958,1.0026
1.91,0.946354,1.00787,19.6915,18.6968,20.6864,1.00261
1.92,0.947456,1.00789,19.682,18.6873,20.6769,1.00261
1.93,0.948588,1.00791,19.6725,18.6779,20.6674,1.00263
1.94,0.949704,1.00791,19.663,18.6684,20.6579,1.00262
1.95,0.950797,1.00795,19.6535,18.6589,20.6484,1.00264
1.96,0.951883,1.00796,19.644,18.6494,20.6389,1.00265
1.97,0.952857,1.00797,19.6345,18.6399,20.6293,1.00264
1.98,0.953935,1.00802,19.6249,18.6304,20.6197,1.00266
1.99,0.954938,1.00801,19.6154,18.6208,20.6102,1.00265
2,0.955962,1.00804,19.6058,18.6113,20.6007,1.00267
2.01,0.957017,1.00805,19.5963,18.6017,20.5911,1.00268
2.02,0.95797,1.00806,19.5867,18.5922,20.5815,1.00266
2.03,0.958996,1.00809,19.5771,18.5826,20.5719,1.00269
2.04,0.960002,1.00809,19.5675,18.573,20.5623,1.00268
2.05,0.961005,1.00812,19.5579,18.5634,20.5526,1.00269
2.06,0.961908,1.00813,19.5483,18.5538,20.543,1.0027
2.07,0.962847,1.00811,19.5387,18.5442,20.5334,1.00268
2.08,0.96382,1.00816,19.529,18.5346,20.5238,1.00271
2.09,0.964781,1.00816,19.5194,18.5249,20.5141,1.00271
2.1,0.965644,1.00817,19.5098,18.5153,20.5045,1.00271
2.11,0.966711,1.00822,19.5001,18.5056,20.4948,1.00273
2.12,0.96748,1.0082,19.4904,18.496,20.4851,1.00272
2.13,0.968321,1.00824,19.4807,18.4863,20.4754,1.00274
2.14,0.969218,1.00826,19.4711,18.4767,20.4657,1.00275
2.15,0.970063,1.00826,19.4614,18.467,20.456,1.00273
2.16,0.971047,1.00831,19.4517,18.4573,20.4463,1.00276
2.17,0.971794,1.00831,19.4419,18.4476,20.4366,1.00276
2.18,0.972681,1.00834,19.4322,18.4379,20.4268,1.00276
2.19,0.973509,1.00836,19.4225,18.4282,20.4171,1.00278
2.2,0.974367,1.00835,19.4127,18.4184,20.4073,1.00277
2.21,0.975281,1.0084,19.403,18.4087,20.3976,1.00279
2.22,0.976254,1.0084,19.3932,18.3989,20.3878,1.00279
2.23,0.977034,1.0084,19.3835,18.3892,20.378,1.00278
2.24,0.977751,1.00846,19.3737,18.3794,20.3682,1.00281
2.25,0.978423,1.00844,19.3639,18.3697,20.3585,1.0028
2.26,0.979171,1.00846,19.3541,18.3599,20.3487,1.00281
2.27,0.979996,1.00849,19.3443,18.3501,20.3389,1.00282
2.28,0.980659,1.00848,19.3345,18.3403,20.3291,1.00281
2.29,0.981551,1.00851,19.3247,18.3305,20.3192,1.00282
2.3,0.982286,1.00852,19.3149,18.3207,20.3094,1.00283
2.31,0.983041,1.00851,19.3051,18.3109,20.2996,1.00281
2.32,0.98385,1.00854,19.2952,18.301,20.2897,1.00284
2.33,0.984636,1.00853,19.2854,18.2912,20.2799,1.00283
2.34,0.985417,1.00854,19.2756,18.2814,20.27,1.00282
2.35,0.986144,1.00856,19.2657,18.2715,20.2602,1.00284
2.36,0.986865,1.00855,19.2558,18.2617,20.2503,1.00283
2.37,0.987596,1.00859,19.246,18.2518,20.2404,1.00284
2.38,0.988215,1.00859,19.2361,18.2419,20.2306,1.00285
2.39,0.988841,1.00858,19.2262,18.2321,20.2207,1.00283
2.4,0.989565,1.00863,19.2163,18.2222,20.2107,1.00286
2.41,0.990246,1.00863,19.2064,18.2123,20.2008,1.00286
2.42,0.990916,1.00863,19.1965,18.2024,20.1909,1.00285
2.43,0.991661,1.00868,19.1866,18.1925,20.181,1.00288
2.44,0.992343,1.00867,19.1767,18.1826,20.1711,1.00287
2.45,0.993017,1.00869,19.1667,18.1727,20.1611,1.00288
2.46,0.993717,1.00872,19.1568,18.1627,20.1512,1.0029
2.47,0.994453,1.00872,19.1469,18.1528,20.1412,1.00289
2.48,0.995129,1.00876,19.1369,18.1429,20.1313,1.0029
2.49,0.995751,1.00877,19.127,18.1329,20.1213,1.00291
2.5,0.996347,1.00876,19.117,18.123,20.1113,1.00289
2.51,0.996972,1.00879,19.107,18.113,20.1014,1.00292
2.52,0.997592,1.0088,19.0971,18.1031,20.0914,1.00292
2.53,0.998182,1.00881,19.0871,18.0931,20.0814,1.00291
2.54,0.998813,1.00884,19.0771,18.0831,20.0714,1.00293
2.55,0.999353,1.00883,19.0671,18.0731,20.0614,1.00293
2.56,1.00004,1.00885,19.0571,18.0631,20.0514,1.00292
2.57,1.00066,1.00886,19.0471,18.0531,20.0414,1.00294
2.58,1.00125,1.00886,19.0371,18.0431,20.0314,1.00293
2.59,1.0019,1.00888,19.0271,18.0331,20.0213,1.00294
2.6,1.00248,1.00889,19.0171,18.0231,20.0113,1.00295
2.61,1.00301,1.00888,19.007,18.0131,20.0013,1.00293
2.62,1.00375,1.00893,18.997,18.0031,19.9912,1.00296
2.63,1.00427,1.00892,18.987,17.993,19.9812,1.00296
2.64,1.00483,1.00892,18.9769,17.983,19.9712,1.00294
2.65,1.00542,1.00896,18.9669,17.973,19.9611,1.00297
2.66,1.00592,1.00896,18.9568,17.9629,19.951,1.00297
2.67,1.00648,1.00896,18.9467,17.9529,19.941,1.00296
2.68,1.0072,1.00899,18.9367,17.9428,19.9309,1.00298
2.69,1.00775,1.00898,18.9266,17.9327,19.9208,1.00298
2.7,1.00829,1.00899,18.9165,17.9227,19.9107,1.00298
2.71,1.00885,1.00901,18.9064,17.9126,19.9007,1.003
2.72,1.00941,1.00901,18.8963,17.9025,19.8906,1.00298
2.73,1.00991,1.00903,18.8862,17.8924,19.8804,1.00299
2.74,1.0104,1.00904,18.8761,17.8823,19.8703,1.003
2.75,1.01086,1.00902,18.866,17.8722,19.8602,1.00298
2.76,1.01137,1.00904,18.8559,17.8621,19.8501,1.003
2.77,1.01183,1.00905,18.8458,17.852,19.84,1.00301
2.78,1.01241,1.00904,18.8357,17.8419,19.8299,1.00298
2.79,1.01295,1.00907,18.8256,17.8317,19.8197,1.003
2.8,1.01349,1.00906,18.8154,17.8216,19.8096,1.00301
2.81,1.014,1.00905,18.8053,17.8115,19.7994,1.00298
2.82,1.01457,1.00907,18.7952,17.8013,19.7893,1.00301
2.83,1.0151,1.00906,18.785,17.7912,19.7792,1.00301
2.84,1.01558,1.00906,18.7749,17.781,19.769,1.00299
2.85,1.01611,1.00908,18.7647,17.7709,19.7589,1.00302
2.86,1.01665,1.00907,18.7545,17.7607,19.7487,1.00301
2.87,1.01714,1.00909,18.7444,17.7505,19.7385,1.00301
2.88,1.01745,1.0091,18.7342,17.7404,19.7284,1.00303
2.89,1.01792,1.0091,18.724,17.7302,19.7182,1.00302
2.9,1.0184,1.00913,18.7138,17.7201,19.708,1.00302
2.91,1.01887,1.00914,18.7036,17.7099,19.6978,1.00304
2.92,1.01933,1.00914,18.6935,17.6997,19.6876,1.00302
2.93,1.01986,1.00917,18.6833,17.6895,19.6773,1.00304
2.94,1.02033,1.00917,18.6731,17.6793,19.6672,1.00305
2.95,1.02082,1.00917,18.6629,17.6691,19.6569,1.00304
2.96,1.02132,1.0092,18.6526,17.6589,19.6467,1.00305
2.97,1.02182,1.00921,18.6424,17.6487,19.6365,1.00306
2.98,1.02218,1.0092,18.6322,17.6385,19.6263,1.00304
2.99,1.02265,1.00924,18.622,17.6283,19.616,1.00307
3,1.02307,1.00923,18.6118,17.618,19.6058,1.00307
3.01,1.02343,1.00922,18.6015,17.6078,19.5956,1.00305
3.02,1.02392,1.00926,18.5913,17.5976,19.5853,1.00308
3.03,1.02436,1.00926,18.581,17.5873,19.5751,1.00308
3.04,1.02475,1.00925,18.5708,17.5771,19.5648,1.00305
3.05,1.02522,1.00928,18.5605,17.5668,19.5545,1.00308
3.06,1.02563,1.00927,18.5503,17.5566,19.5443,1.00308
3.07,1.02606,1.00926,18.54,17.5463,19.534,1.00306
3.08,1.02652,1.00928,18.5298,17.5361,19.5238,1.00309
3.09,1.02691,1.00927,18.5195,17.5258,19.5135,1.00308
3.1,1.02732,1.00927,18.5092,17.5155,19.5032,1.00307
3.11,1.0278,1.0093,18.499,17.5053,19.493,1.00309
3.12,1.02811,1.00928,18.4887,17.495,19.4827,1.00309
3.13,1.02845,1.00929,18.4784,17.4847,19.4724,1.00308
3.14,1.029,1.00932,18.4681,17.4744,19.4621,1.0031
3.15,1.02933,1.00932,18.4578,17.4642,19.4518,1.00309
3.16,1.0297,1.00933,18.4475,17.4539,19.4415,1.00309
3.17,1.03009,1.00936,18.4372,17.4436,19.4312,1.00311
3.18,1.03043,1.00935,18.4269,17.4333,19.4209,1.0031
3.19,1.03077,1.00936,18.4166,17.423,19.4106,1.0031
3.2,1.03113,1.00938,18.4063,17.4127,19.4003,1.00312
3.21,1.0315,1.00938,18.396,17.4024,19.39,1.00311
3.22,1.03185,1.0094,18.3857,17.3921,19.3796,1.00312
3.23,1.03217,1.00942,18.3754,17.3818,19.3693,1.00313
3.24,1.0325,1.0094,18.365,17.3714,19.359,1.00312
3.25,1.03278,1.00942,18.3547,17.3611,19.3487,1.00313
3.26,1.03325,1.00943,18.3444,17.3508,19.3383,1.00314
3.27,1.03356,1.00943,18.334,17.3405,19.328,1.00312
3.28,1.03396,1.00945,18.3237,17.3301,19.3176,1.00313
3.29,1.0343,1.00946,18.3134,17.3198,19.3073,1.00314
3.3,1.03465,1.00944,18.303,17.3094,19.2969,1.00312
3.31,1.03505,1.00945,18.2927,17.2991,19.2866,1.00313
3.32,1.03529,1.00946,18.2823,17.2887,19.2762,1.00314
3.33,1.03561,1.00945,18.272,17.2784,19.2659,1.00313
3.34,1.03595,1.00947,18.2616,17.268,19.2555,1.00314
3.35,1.03635,1.00948,18.2512,17.2577,19.2452,1.00315
3.36,1.03662,1.00946,18.2409,17.2473,19.2348,1.00313
3.37,1.03692,1.00949,18.2305,17.237,19.2244,1.00315
3.38,1.03726,1.0095,18.2201,17.2266,19.2141,1.00316
3.39,1.03764,1.0095,18.2098,17.2162,19.2037,1.00314
3.4,1.03799,1.00952,18.1994,17.2059,19.1933,1.00315
3.41,1.03834,1.00953,18.189,17.1955,19.1829,1.00317
3.42,1.0387,1.00952,18.1786,17.1851,19.1725,1.00315
3.43,1.03902,1.00954,18.1682,17.1747,19.1621,1.00317
3.44,1.03938,1.00954,18.1578,17.1643,19.1517,1.00318
3.45,1.03971,1.00953,18.1474,17.1539,19.1413,1.00316
3.46,1.04003,1.00956,18.137,17.1435,19.1309,1.00317
3.47,1.04032,1.00956,18.1266,17.1331,19.1205,1.00318
3.48,1.04056,1.00954,18.1162,17.1227,19.1101,1.00316
3.49,1.04083,1.00956,18.1058,17.1123,19.0997,1.00318
3.5,1.04119,1.00956,18.0954,17.1019,19.0893,1.00318
3.51,1.04145,1.00955,18.085,17.0915,19.0789,1.00316
3.52,1.0418,1.00957,18.0746,17.0811,19.0684,1.00317
3.53,1.04205,1.00957,18.0642,17.0707,19.058,1.00318
3.54,1.04235,1.00955,18.0538,17.0602,19.0476,1.00316
3.55,1.04268,1.00957,18.0433,17.0498,19.0372,1.00318
3.56,1.04292,1.00957,18.0329,17.0394,19.0268,1.00318
3.57,1.04323,1.00955,18.0225,17.029,19.0163,1.00316
3.58,1.04346,1.00957,18.012,17.0185,19.0059,1.00318
3.59,1.04395,1.00957,18.0016,17.0081,18.9954,1.00319
3.6,1.04408,1.00955,17.9912,16.9976,18.985,1.00317
3.61,1.04432,1.00957,17.9807,16.9872,18.9746,1.00318
3.62,1.04453,1.00958,17.9703,16.9768,18.9641,1.00319
3.63,1.04477,1.00958,17.9598,16.9664,18.9537,1.00317
3.64,1.04507,1.0096,17.9494,16.9559,18.9432,1.00319
3.65,1.04534,1.00961,17.9389,16.9455,18.9328,1.00319
3.66,1.0455,1.0096,17.9285,16.935,18.9223,1.00318
3.67,1.04577,1.00961,17.918,16.9246,18.9118,1.00319
3.68,1.04603,1.00962,17.9076,16.9141,18.9014,1.0032
3.69,1.04632,1.00962,17.8971,16.9036,18.8909,1.00319
3.7,1.04658,1.00964,17.8866,16.8932,18.8804,1.0032
3.71,1.04679,1.00965,17.8762,16.8827,18.87,1.00321
3.72,1.04711,1.00964,17.8657,16.8723,18.8595,1.00319
3.73,1.04732,1.00966,17.8552,16.8618,18.849,1.00321
3.74,1.04759,1.00967,17.8448,16.8513,18.8386,1.00322
3.75,1.04787,1.00967,17.8343,16.8409,18.8281,1.0032
3.76,1.0481,1.00969,17.8238,16.8304,18.8175,1.00321
3.77,1.04841,1.0097,17.8133,16.8199,18.8071,1.00322
