time,velocity,ratio,centerX,Xmax,Xmin,Ymax
0,0,1,6,5,7,1
0.01,0.0195357,1,5.99991,4.99991,6.9999,1
0.02,0.0384845,1.00001,5.99962,4.99962,6.99961,1
0.03,0.0568404,1.00001,5.99915,4.99915,6.99912,1
0.04,0.0746837,1.00002,5.9985,4.9985,6.99846,1
0.05,0.0919754,1.00003,5.99767,4.99767,6.99762,1
0.06,0.108875,1.00003,5.99667,4.99668,6.99661,0.999999
0.07,0.125228,1.00004,5.9955,4.99553,6.99544,0.999998
0.08,0.141132,1.00005,5.99417,4.99422,6.99411,0.999996
0.09,0.156637,1.00006,5.99269,4.99276,6.99262,0.999993
0.1,0.171602,1.00008,5.99105,4.99114,6.99099,1.00001
0.11,0.186361,1.00012,5.98927,4.98938,6.9892,1.00003
0.12,0.200742,1.00016,5.98734,4.98749,6.98728,1.00006
0.13,0.214729,1.0002,5.98526,4.98546,6.98522,1.00008
0.14,0.228358,1.00023,5.98305,4.9833,6.98302,1.00009
0.15,0.241699,1.00028,5.98071,4.98101,6.98065,1.00011
0.16,0.254663,1.00035,5.97823,4.97859,6.97813,1.00012
0.17,0.267335,1.00044,5.97562,4.97604,6.97546,1.00015
0.18,0.27974,1.00056,5.97289,4.97339,6.97266,1.00019
0.19,0.291816,1.00069,5.97004,4.97062,6.96972,1.00024
0.2,0.303598,1.00084,5.96707,4.96775,6.96664,1.00029
0.21,0.315113,1.001,5.96398,4.96476,6.96342,1.00033
0.22,0.326332,1.00117,5.96077,4.96167,6.96006,1.00037
0.23,0.337312,1.00139,5.95746,4.95848,6.95658,1.00044
0.24,0.348011,1.00162,5.95404,4.95519,6.953,1.00052
0.25,0.358477,1.00186,5.95051,4.95182,6.94929,1.00059
0.26,0.368529,1.0021,5.94687,4.94834,6.94545,1.00066
0.27,0.37852,1.00237,5.94314,4.94476,6.9415,1.00074
0.28,0.388306,1.00266,5.93931,4.9411,6.93747,1.00085
0.29,0.39793,1.00298,5.93538,4.93734,6.93329,1.00095
0.3,0.407268,1.00332,5.93136,4.93352,6.92898,1.00104
0.31,0.416373,1.00366,5.92724,4.92962,6.92461,1.00115
0.32,0.425235,1.00401,5.92304,4.92564,6.9202,1.00128
0.33,0.433972,1.00438,5.91875,4.92157,6.91565,1.00141
0.34,0.442441,1.00477,5.91437,4.91744,6.91097,1.00152
0.35,0.450762,1.0052,5.9099,4.91323,6.9062,1.00167
0.36,0.458893,1.00566,5.90536,4.90894,6.90134,1.00183
0.37,0.466771,1.00613,5.90073,4.9046,6.89634,1.00197
0.38,0.47455,1.00661,5.89603,4.90018,6.89127,1.00212
0.39,0.482193,1.00713,5.89124,4.89571,6.88614,1.0023
0.4,0.489588,1.00767,5.88639,4.89119,6.88087,1.00247
0.41,0.496823,1.0082,5.88146,4.8866,6.87555,1.00263
0.42,0.503909,1.00878,5.87646,4.88193,6.87014,1.00284
0.43,0.510826,1.00937,5.87138,4.87718,6.8646,1.00302
0.44,0.517599,1.00989,5.86624,4.87238,6.85912,1.00319
0.45,0.524298,1.01046,5.86104,4.86755,6.85361,1.00342
0.46,0.530794,1.01107,5.85576,4.86266,6.84792,1.00362
0.47,0.537136,1.01166,5.85043,4.8577,6.84217,1.0038
0.48,0.543391,1.01233,5.84503,4.85268,6.83629,1.00404
0.49,0.549444,1.01301,5.83956,4.8476,6.8303,1.00425
0.5,0.555354,1.01365,5.83404,4.84247,6.82431,1.00445
0.51,0.561078,1.01439,5.82846,4.83728,6.81819,1.0047
0.52,0.566779,1.01508,5.82282,4.83205,6.81204,1.00492
0.53,0.572387,1.0158,5.81713,4.82678,6.80579,1.00514
0.54,0.577887,1.01656,5.81138,4.82144,6.79947,1.0054
0.55,0.583241,1.01721,5.80558,4.81602,6.79323,1.00562
0.56,0.588433,1.01793,5.79972,4.81057,6.78686,1.00586
0.57,0.593569,1.01867,5.79381,4.80508,6.78042,1.00611
0.58,0.598616,1.0194,5.78785,4.79955,6.77392,1.00633
0.59,0.603555,1.0202,5.78184,4.79397,6.76732,1.0066
0.6,0.608329,1.02094,5.77578,4.78834,6.76074,1.00685
0.61,0.613052,1.02171,5.76968,4.78267,6.75404,1.00708
0.62,0.617763,1.02248,5.76353,4.77696,6.74736,1.00735
0.63,0.622274,1.02329,5.75733,4.77121,6.74051,1.00758
0.64,0.626686,1.02407,5.75108,4.76545,6.73376,1.00784
0.65,0.631005,1.02479,5.7448,4.75964,6.72707,1.0081
0.66,0.635272,1.02552,5.73847,4.75375,6.72022,1.00833
0.67,0.639302,1.02628,5.7321,4.7478,6.71335,1.00861
0.68,0.6434,1.02709,5.72568,4.74187,6.70634,1.00884
0.69,0.647445,1.02789,5.71923,4.73591,6.69935,1.00911
0.7,0.651408,1.02871,5.71274,4.72988,6.69226,1.00936
0.71,0.655257,1.02947,5.70621,4.72381,6.6852,1.00959
0.72,0.659067,1.03031,5.69963,4.7177,6.67802,1.00986
0.73,0.662828,1.03105,5.69303,4.71154,6.67088,1.01009
0.74,0.666445,1.0318,5.68638,4.70536,6.66379,1.01036
0.75,0.67009,1.03257,5.6797,4.69913,6.65659,1.0106
0.76,0.673666,1.0333,5.67298,4.69283,6.64939,1.01085
0.77,0.677167,1.03407,5.66623,4.68649,6.64207,1.0111
0.78,0.680598,1.03477,5.65944,4.68012,6.6348,1.01132
0.79,0.683956,1.03556,5.65262,4.67373,6.62743,1.01159
0.8,0.687186,1.03625,5.64577,4.66729,6.6201,1.0118
0.81,0.690415,1.03704,5.63888,4.66082,6.61265,1.01206
0.82,0.693776,1.03767,5.63196,4.65432,6.60538,1.01228
0.83,0.696982,1.03833,5.62501,4.64778,6.59805,1.01251
0.84,0.700378,1.03901,5.61802,4.64123,6.59066,1.01274
0.85,0.703495,1.0397,5.611,4.63464,6.58319,1.01296
0.86,0.70653,1.04039,5.60395,4.62797,6.57569,1.01319
0.87,0.709583,1.04103,5.59687,4.62127,6.56815,1.01338
0.88,0.712489,1.04174,5.58977,4.61458,6.5606,1.01362
0.89,0.715418,1.0424,5.58263,4.60785,6.55299,1.01381
0.9,0.718348,1.04306,5.57546,4.60106,6.54541,1.01404
0.91,0.721171,1.04363,5.56826,4.59424,6.53789,1.01423
0.92,0.72398,1.04427,5.56104,4.58739,6.53027,1.01444
0.93,0.726789,1.04486,5.55378,4.58051,6.52266,1.01463
0.94,0.729451,1.04548,5.5465,4.5736,6.51496,1.01483
0.95,0.73219,1.04604,5.5392,4.56661,6.5073,1.01502
0.96,0.734767,1.04661,5.53186,4.5596,6.49957,1.0152
0.97,0.737498,1.04719,5.5245,4.55256,6.49183,1.01539
0.98,0.740115,1.04775,5.51712,4.54551,6.48406,1.01556
0.99,0.742647,1.04822,5.5097,4.5384,6.47646,1.01575
1,0.745184,1.0487,5.50226,4.53128,6.46873,1.0159
1.01,0.74766,1.04921,5.4948,4.52413,6.461,1.01609
1.02,0.750076,1.04973,5.48731,4.51697,6.45315,1.01624
1.03,0.752501,1.05026,5.4798,4.50979,6.44536,1.01643
1.04,0.754797,1.05074,5.47227,4.50254,6.43748,1.01656
1.05,0.757045,1.05124,5.46471,4.49525,6.42962,1.01674
1.06,0.759315,1.05172,5.45713,4.48799,6.42171,1.01687
1.07,0.761661,1.05218,5.44952,4.4807,6.41393,1.01705
1.08,0.763925,1.05261,5.4419,4.47337,6.40604,1.01717
1.09,0.766134,1.05307,5.43425,4.46602,6.39816,1.01734
1.1,0.768336,1.0535,5.42657,4.45863,6.39019,1.01745
1.11,0.770494,1.05396,5.41888,4.45124,6.38227,1.01762
1.12,0.772623,1.05437,5.41117,4.44378,6.37428,1.01772
1.13,0.774763,1.0548,5.40343,4.43628,6.36629,1.01788
1.14,0.776818,1.05517,5.39567,4.42878,6.3583,1.01798
1.15,0.778833,1.05551,5.3879,4.42126,6.35044,1.01814
1.16,0.78105,1.05584,5.3801,4.4137,6.34246,1.01823
1.17,0.783041,1.05623,5.37228,4.40613,6.33446,1.01838
1.18,0.785063,1.05659,5.36444,4.39853,6.32639,1.01847
1.19,0.787043,1.057,5.35658,4.39094,6.31833,1.01862
1.2,0.788974,1.05734,5.3487,4.38332,6.31024,1.01871
1.21,0.790823,1.05774,5.3408,4.37563,6.30209,1.01885
1.22,0.792796,1.05805,5.33288,4.36795,6.294,1.01893
1.23,0.794716,1.0584,5.32495,4.36027,6.28594,1.01907
1.24,0.796647,1.05869,5.31699,4.35254,6.27783,1.01914
1.25,0.798494,1.05906,5.30901,4.3448,6.26966,1.01927
1.26,0.800339,1.05934,5.30102,4.33702,6.2615,1.01934
1.27,0.802175,1.0597,5.29301,4.32923,6.25329,1.01947
1.28,0.803992,1.05998,5.28498,4.32141,6.24511,1.01954
1.29,0.805693,1.06033,5.27693,4.31352,6.23681,1.01966
1.3,0.807411,1.06052,5.26887,4.30563,6.2287,1.01973
1.31,0.809292,1.06078,5.26078,4.29773,6.22053,1.01983
1.32,0.811046,1.061,5.25268,4.2898,6.21234,1.01991
1.33,0.812745,1.06131,5.24457,4.28186,6.20403,1.02
1.34,0.814461,1.06155,5.23643,4.27389,6.19577,1.02008
1.35,0.816214,1.06186,5.22828,4.26594,6.18742,1.02017
1.36,0.817769,1.06213,5.22011,4.25797,6.1791,1.02025
1.37,0.819306,1.06239,5.21192,4.24991,6.17073,1.02033
1.38,0.820962,1.0626,5.20372,4.24189,6.16248,1.02041
1.39,0.822657,1.06286,5.1955,4.23387,6.15413,1.02048
1.4,0.824038,1.06311,5.18727,4.22581,6.14577,1.02057
1.41,0.825587,1.06335,5.17902,4.21774,6.13737,1.02062
1.42,0.827264,1.06362,5.17076,4.20963,6.12895,1.02072
1.43,0.828738,1.06384,5.16248,4.20152,6.12054,1.02076
1.44,0.830289,1.06413,5.15419,4.19336,6.11203,1.02086
1.45,0.83171,1.06423,5.14588,4.18515,6.10371,1.02089
1.46,0.833293,1.06445,5.13755,4.17695,6.09531,1.021
1.47,0.834837,1.0646,5.12921,4.16874,6.08691,1.02104
1.48,0.836427,1.06485,5.12086,4.1605,6.07838,1.02113
1.49,0.837914,1.06503,5.11249,4.15226,6.0699,1.02118
1.5,0.839466,1.06528,5.1041,4.144,6.06135,1.02126
1.51,0.84093,1.06551,5.0957,4.13576,6.0528,1.02132
1.52,0.842268,1.06571,5.08728,4.12744,6.04426,1.02138
1.53,0.843683,1.06587,5.07885,4.11912,6.03577,1.02145
1.54,0.845122,1.06605,5.07041,4.11082,6.02723,1.0215
1.55,0.846427,1.06628,5.06195,4.10249,6.01864,1.02157
1.56,0.847811,1.06644,5.05348,4.09414,6.01006,1.02161
1.57,0.849156,1.06668,5.045,4.08576,6.00142,1.02169
1.58,0.850627,1.06684,5.0365,4.07739,5.99281,1.02172
1.59,0.851863,1.06709,5.02799,4.06897,5.98411,1.02181
1.6,0.853191,1.06714,5.01946,4.06051,5.97562,1.02185
1.61,0.85464,1.06731,5.01092,4.05205,5.967,1.02192
1.62,0.855908,1.06745,5.00237,4.04359,5.95837,1.02197
1.63,0.85721,1.06763,4.99381,4.0351,5.94967,1.02203
1.64,0.858423,1.06782,4.98523,4.02661,5.94095,1.02208
1.65,0.859643,1.06798,4.97664,4.01813,5.93226,1.02213
1.66,0.860786,1.06823,4.96804,4.00965,5.92347,1.0222
1.67,0.862018,1.06831,4.95942,4.00109,5.91483,1.02223
1.68,0.863266,1.0685,4.9508,3.99255,5.9061,1.02231
1.69,0.864477,1.06864,4.94216,3.98404,5.89739,1.02234
1.7,0.86566,1.06886,4.93351,3.9755,5.88859,1.02242
1.71,0.866807,1.06903,4.92485,3.96696,5.87983,1.02246
1.72,0.867953,1.06922,4.91617,3.95839,5.87104,1.02252
1.73,0.868988,1.06945,4.90749,3.94984,5.86218,1.02258
1.74,0.870023,1.06955,4.8988,3.94122,5.85348,1.02262
1.75,0.871155,1.06968,4.89009,3.9326,5.84473,1.02269
1.76,0.872288,1.0698,4.88137,3.92398,5.83597,1.02272
1.77,0.873427,1.07001,4.87265,3.91535,5.82709,1.0228
1.78,0.874496,1.07015,4.86391,3.90672,5.81826,1.02282
1.79,0.875603,1.07037,4.85516,3.89807,5.80939,1.02291
1.8,0.876607,1.07058,4.8464,3.88945,5.80047,1.02295
1.81,0.877564,1.07074,4.83763,3.8808,5.79164,1.02301
1.82,0.878642,1.07088,4.82884,3.8721,5.78278,1.02306
1.83,0.879603,1.07104,4.82005,3.86344,5.77393,1.02311
1.84,0.880619,1.07126,4.81125,3.85477,5.76499,1.02317
1.85,0.881563,1.0714,4.80244,3.84607,5.75609,1.0232
1.86,0.882627,1.07162,4.79362,3.83737,5.74715,1.02328
1.87,0.883556,1.07182,4.78479,3.82866,5.73815,1.02332
1.88,0.884452,1.07197,4.77595,3.81993,5.72928,1.02338
1.89,0.88539,1.07208,4.7671,3.81115,5.7204,1.02343
1.9,0.886363,1.0722,4.75824,3.80238,5.7115,1.02348
1.91,0.887343,1.0724,4.74938,3.79362,5.70249,1.02354
1.92,0.888314,1.07253,4.7405,3.78483,5.69353,1.02357
1.93,0.889249,1.07274,4.73161,3.77604,5.68451,1.02365
1.94,0.890115,1.07293,4.72271,3.76726,5.67545,1.02368
1.95,0.891015,1.07311,4.71381,3.75848,5.66649,1.02375
1.96,0.891917,1.07324,4.70489,3.74963,5.65749,1.0238
1.97,0.892738,1.07339,4.69597,3.74081,5.6485,1.02385
1.98,0.893646,1.07362,4.68704,3.73203,5.63942,1.02391
1.99,0.894536,1.07376,4.6781,3.7232,5.63038,1.02394
2,0.895421,1.07398,4.66915,3.71436,5.62132,1.02402
2.01,0.896234,1.07417,4.66019,3.70552,5.6122,1.02405
2.02,0.897067,1.07431,4.65123,3.69666,5.60322,1.02412
2.03,0.897903,1.07442,4.64225,3.68775,5.59419,1.02416
2.04,0.89874,1.07454,4.63327,3.67885,5.58517,1.02421
2.05,0.899638,1.07474,4.62428,3.66995,5.57604,1.02427
2.06,0.900446,1.07486,4.61528,3.66102,5.56693,1.0243
2.07,0.901334,1.07506,4.60627,3.6521,5.55781,1.02438
2.08,0.902064,1.07525,4.59725,3.64319,5.54862,1.02441
2.09,0.902826,1.07541,4.58823,3.63428,5.53957,1.02448
2.1,0.903556,1.07555,4.5792,3.62531,5.53044,1.02453
2.11,0.904368,1.07568,4.57016,3.61636,5.52133,1.02457
2.12,0.905149,1.07589,4.56111,3.60744,5.51216,1.02464
2.13,0.905902,1.07603,4.55206,3.59847,5.50298,1.02465
2.14,0.90681,1.07623,4.54299,3.5895,5.49381,1.02474
2.15,0.907514,1.07642,4.53392,3.58052,5.48456,1.02477
2.16,0.908245,1.07652,4.52484,3.57154,5.47551,1.02483
2.17,0.908956,1.07663,4.51576,3.5625,5.46637,1.02488
2.18,0.909715,1.07674,4.50666,3.55347,5.4572,1.02491
2.19,0.910437,1.07691,4.49756,3.54444,5.448,1.02498
2.2,0.911348,1.07705,4.48846,3.53539,5.43875,1.02501
2.21,0.912105,1.0772,4.47934,3.52634,5.42956,1.02508
2.22,0.912705,1.07739,4.47022,3.51731,5.42028,1.02512
2.23,0.913328,1.0775,4.46109,3.50828,5.41114,1.02516
2.24,0.913892,1.07762,4.45195,3.49917,5.40193,1.02522
2.25,0.914509,1.07774,4.44281,3.49011,5.39268,1.02523
2.26,0.915189,1.07793,4.43366,3.48109,5.38345,1.02531
2.27,0.915796,1.0781,4.42451,3.47203,5.37417,1.02535
2.28,0.916357,1.07827,4.41535,3.46297,5.36491,1.0254
2.29,0.916993,1.07843,4.40618,3.45391,5.35566,1.02545
2.3,0.917535,1.0785,4.39701,3.44483,5.3465,1.02547
2.31,0.918161,1.07863,4.38783,3.43571,5.33729,1.02554
2.32,0.918819,1.07876,4.37864,3.42661,5.32798,1.02557
2.33,0.91947,1.07891,4.36945,3.4175,5.31872,1.02563
2.34,0.920118,1.07907,4.36026,3.40839,5.30941,1.02567
2.35,0.920712,1.07923,4.35105,3.39927,5.30008,1.0257
2.36,0.92123,1.07939,4.34184,3.39018,5.29083,1.02577
2.37,0.921764,1.0795,4.33263,3.38107,5.28154,1.02578
2.38,0.922366,1.07964,4.32341,3.37191,5.27227,1.02585
2.39,0.922921,1.0798,4.31418,3.36279,5.26293,1.02589
2.4,0.923532,1.07996,4.30495,3.35367,5.25361,1.02593
2.41,0.924117,1.08013,4.29571,3.34454,5.24428,1.02598
2.42,0.924552,1.08028,4.28647,3.33539,5.23488,1.02599
2.43,0.925094,1.0804,4.27722,3.32625,5.22567,1.02607
2.44,0.925549,1.08049,4.26797,3.31707,5.21638,1.0261
2.45,0.926072,1.0806,4.25871,3.30787,5.20707,1.02614
2.46,0.926703,1.08074,4.24945,3.29868,5.19772,1.02619
2.47,0.927265,1.08086,4.24018,3.28947,5.18833,1.0262
2.48,0.927803,1.08102,4.2309,3.28028,5.17898,1.02627
2.49,0.928392,1.08116,4.22162,3.27107,5.16958,1.0263
2.5,0.928877,1.08129,4.21233,3.26191,5.16028,1.02634
2.51,0.929395,1.0814,4.20304,3.25268,5.15093,1.02639
2.52,0.92982,1.08151,4.19375,3.24344,5.14153,1.0264
2.53,0.93036,1.08169,4.18445,3.23426,5.13216,1.02647
2.54,0.930912,1.08183,4.17514,3.22506,5.12275,1.02649
2.55,0.931287,1.08201,4.16583,3.21585,5.11333,1.02654
2.56,0.931836,1.08212,4.15651,3.20663,5.10399,1.02659
2.57,0.932353,1.08221,4.14719,3.19741,5.09466,1.0266
2.58,0.932845,1.08231,4.13787,3.18814,5.08531,1.02667
2.59,0.933421,1.08243,4.12854,3.17887,5.07588,1.02669
2.6,0.933953,1.08257,4.1192,3.16961,5.06647,1.02674
2.61,0.934429,1.08269,4.10986,3.16033,5.05704,1.02678
2.62,0.934918,1.08284,4.10051,3.15105,5.04755,1.0268
2.63,0.935431,1.08295,4.09116,3.14179,5.0382,1.02686
2.64,0.93584,1.08306,4.08181,3.13253,5.02878,1.02687
2.65,0.936309,1.08317,4.07245,3.12321,5.01936,1.02693
2.66,0.936786,1.0833,4.06308,3.11393,5.00992,1.02696
2.67,0.937315,1.08344,4.05371,3.10466,5.00044,1.02698
2.68,0.937838,1.08359,4.04433,3.09537,4.99099,1.02704
2.69,0.938292,1.0837,4.03495,3.08606,4.98151,1.02705
2.7,0.938667,1.08378,4.02557,3.07677,4.97217,1.0271
2.71,0.939024,1.08385,4.01618,3.06743,4.96278,1.02714
2.72,0.939507,1.08393,4.00679,3.05807,4.9533,1.02715
2.73,0.939972,1.08405,3.99739,3.04873,4.94387,1.02721
2.74,0.940377,1.08414,3.98799,3.03938,4.93438,1.02722
2.75,0.940773,1.08428,3.97858,3.03003,4.92487,1.02727
2.76,0.941159,1.08436,3.96918,3.02068,4.91544,1.0273
2.77,0.941476,1.08445,3.95976,3.01137,4.90599,1.02731
2.78,0.941833,1.08455,3.95035,3.00198,4.89655,1.02737
2.79,0.942145,1.08463,3.94093,2.99261,4.88704,1.02738
2.8,0.942457,1.08478,3.9315,2.98329,4.87754,1.02743
2.81,0.942567,1.0849,3.92208,2.97394,4.86806,1.02746
2.82,0.942935,1.08503,3.91265,2.9646,4.85851,1.02747
2.83,0.943304,1.0851,3.90322,2.95525,4.84914,1.02753
2.84,0.943667,1.08517,3.89379,2.94589,4.83969,1.02755
2.85,0.944027,1.08527,3.88435,2.93648,4.83019,1.02759
2.86,0.944436,1.08536,3.87491,2.92709,4.8207,1.02763
2.87,0.944803,1.08546,3.86546,2.9177,4.81115,1.02763
2.88,0.945171,1.08559,3.85601,2.9083,4.80163,1.02769
2.89,0.945474,1.08568,3.84656,2.8989,4.79212,1.02771
2.9,0.945743,1.08578,3.8371,2.88954,4.78264,1.02775
2.91,0.945584,1.08588,3.82764,2.88014,4.77315,1.02779
2.92,0.945885,1.08595,3.81819,2.87071,4.7636,1.02779
2.93,0.946237,1.0861,3.80873,2.86134,4.75408,1.02785
2.94,0.946664,1.0862,3.79926,2.85195,4.74455,1.02787
2.95,0.946716,1.08635,3.7898,2.84256,4.73495,1.0279
2.96,0.94706,1.0864,3.78033,2.83315,4.72553,1.02794
2.97,0.947421,1.08645,3.77086,2.82375,4.71604,1.02793
2.98,0.947784,1.08654,3.76138,2.8143,4.70653,1.02799
2.99,0.948214,1.08661,3.7519,2.80485,4.69699,1.02801
3,0.948593,1.08672,3.74242,2.79541,4.68741,1.02803
3.01,0.948938,1.08681,3.73293,2.78595,4.67785,1.02807
3.02,0.949321,1.08688,3.72344,2.7765,4.66828,1.02807
3.03,0.949599,1.08697,3.71394,2.76707,4.65878,1.02812
3.04,0.949845,1.08706,3.70445,2.75765,4.64926,1.02814
3.05,0.950146,1.08712,3.69495,2.74815,4.63967,1.02816
3.06,0.950505,1.08724,3.68544,2.73871,4.63012,1.0282
3.07,0.950852,1.08733,3.67594,2.72929,4.62054,1.02821
3.08,0.951049,1.08748,3.66643,2.71985,4.61092,1.02825
3.09,0.951456,1.08751,3.65692,2.7104,4.60145,1.02827
3.1,0.951796,1.08757,3.6474,2.70096,4.59193,1.02828
3.11,0.952087,1.08764,3.63788,2.69146,4.58239,1.02833
3.12,0.952478,1.08769,3.62836,2.68195,4.57281,1.02834
3.13,0.952743,1.0878,3.61883,2.67247,4.5632,1.02837
3.14,0.953051,1.08787,3.6093,2.66296,4.55362,1.0284
3.15,0.953308,1.08794,3.59977,2.65347,4.544,1.02839
3.16,0.953533,1.08802,3.59024,2.64398,4.53448,1.02845
3.17,0.953747,1.08809,3.5807,2.63451,4.52491,1.02846
3.18,0.954025,1.08816,3.57116,2.62498,4.5153,1.02849
3.19,0.954317,1.08825,3.56162,2.61548,4.50572,1.02852
3.2,0.954743,1.08832,3.55208,2.60601,4.4961,1.02852
3.21,0.954912,1.08846,3.54253,2.5965,4.48645,1.02857
3.22,0.955131,1.08848,3.53298,2.58699,4.47694,1.02859
3.23,0.955328,1.08853,3.52343,2.5775,4.46739,1.0286
3.24,0.955596,1.08858,3.51387,2.56796,4.45784,1.02864
3.25,0.955843,1.08861,3.50432,2.5584,4.44823,1.02864
3.26,0.956074,1.08871,3.49476,2.54887,4.4386,1.02868
3.27,0.956306,1.08876,3.48519,2.53932,4.429,1.0287
3.28,0.956511,1.08882,3.47563,2.52978,4.41936,1.02871
3.29,0.956714,1.08887,3.46606,2.52024,4.40981,1.02875
3.3,0.956699,1.08892,3.4565,2.51074,4.40023,1.02876
3.31,0.956947,1.08899,3.44693,2.50117,4.3906,1.02879
3.32,0.957097,1.08904,3.43736,2.49161,4.38101,1.02882
3.33,0.957402,1.08911,3.42779,2.48212,4.37139,1.02881
3.34,0.957584,1.08924,3.41821,2.4726,4.36173,1.02886
3.35,0.957786,1.08927,3.40864,2.46308,4.35219,1.02887
3.36,0.958015,1.08932,3.39906,2.45357,4.34262,1.02889
3.37,0.958172,1.08939,3.38948,2.44404,4.33304,1.02893
3.38,0.958392,1.08942,3.37989,2.43448,4.32341,1.02892
3.39,0.958585,1.08953,3.37031,2.42494,4.31376,1.02897
3.4,0.958774,1.0896,3.36072,2.4154,4.30413,1.02899
3.41,0.958938,1.08969,3.35113,2.40586,4.29446,1.02899
3.42,0.95909,1.08976,3.34154,2.39633,4.28488,1.02904
3.43,0.959221,1.08983,3.33195,2.38683,4.27527,1.02904
3.44,0.959348,1.08993,3.32236,2.37728,4.26561,1.02908
3.45,0.959482,1.09001,3.31277,2.36773,4.25598,1.0291
3.46,0.959689,1.0901,3.30317,2.35823,4.24632,1.0291
3.47,0.95979,1.09025,3.29357,2.3487,4.23662,1.02915
3.48,0.959922,1.09029,3.28398,2.33918,4.22705,1.02916
3.49,0.960085,1.09035,3.27438,2.32965,4.21745,1.02918
3.5,0.960071,1.09043,3.26477,2.32011,4.20784,1.02922
3.51,0.96028,1.09048,3.25517,2.31053,4.19818,1.02922
3.52,0.960429,1.0906,3.24557,2.30097,4.1885,1.02927
3.53,0.960569,1.09068,3.23596,2.29142,4.17885,1.02929
3.54,0.960721,1.09077,3.22636,2.28186,4.16915,1.0293
3.55,0.960815,1.09084,3.21675,2.2723,4.15955,1.02934
3.56,0.960903,1.09092,3.20714,2.26279,4.14991,1.02935
3.57,0.961003,1.09103,3.19753,2.25322,4.14022,1.02939
3.58,0.961062,1.0911,3.18792,2.24364,4.13057,1.02942
3.59,0.961173,1.0912,3.17831,2.23413,4.12089,1.02941
3.6,0.961217,1.09137,3.1687,2.2246,4.11117,1.02947
3.61,0.961249,1.09141,3.15909,2.21507,4.10159,1.02948
3.62,0.960978,1.09149,3.14948,2.20554,4.09197,1.02951
3.63,0.961016,1.0916,3.13987,2.19602,4.08234,1.02955
3.64,0.961113,1.09165,3.13026,2.18644,4.07267,1.02955
3.65,0.961096,1.09179,3.12065,2.17688,4.06297,1.0296
3.66,0.961175,1.09188,3.11104,2.16733,4.05331,1.02963
3.67,0.96119,1.09197,3.10142,2.15777,4.04361,1.02964
3.68,0.96121,1.09207,3.09181,2.14822,4.03399,1.02969
3.69,0.961226,1.09215,3.0822,2.13871,4.02434,1.0297
3.7,0.96119,1.09228,3.07259,2.12915,4.01465,1.02974
3.71,0.961231,1.09236,3.06298,2.11958,4.00499,1.02978
3.72,0.961367,1.09246,3.05336,2.11006,3.99531,1.02978
3.73,0.961224,1.09264,3.04375,2.10053,3.98557,1.02984
3.74,0.961148,1.09268,3.03414,2.091,3.976,1.02985
3.75,0.961028,1.09276,3.02453,2.08146,3.96637,1.02988
