time,velocity,ratio,centerX,Xmax,Xmin,Ymax
0,0,1,8.5,7.5,9.5,1
0.01,0.0195639,1,8.49991,7.49991,9.4999,1
0.02,0.0385384,1.00001,8.49962,7.49962,9.49961,1
0.03,0.0569193,1.00001,8.49915,7.49915,9.49912,1
0.04,0.0747879,1.00002,8.4985,7.4985,9.49845,1
0.05,0.0921073,1.00003,8.49767,7.49767,9.49761,1
0.06,0.109043,1.00004,8.49667,7.49668,9.4966,0.999999
0.07,0.125412,1.00005,8.4955,7.49552,9.49542,0.999997
0.08,0.141339,1.00006,8.49418,7.49421,9.49408,0.999995
0.09,0.156853,1.00007,8.49269,7.49275,9.49259,0.999992
0.1,0.171844,1.00009,8.49105,7.49113,9.49095,1
0.11,0.186626,1.00013,8.48927,7.48937,9.48917,1.00003
0.12,0.201024,1.00016,8.48733,7.48747,9.48725,1.00006
0.13,0.215033,1.0002,8.48526,7.48544,9.4852,1.00008
0.14,0.228662,1.00022,8.48305,7.48328,9.48302,1.00009
0.15,0.242008,1.00026,8.4807,7.48099,9.48067,1.0001
0.16,0.254997,1.00032,8.47822,7.47857,9.47816,1.00012
0.17,0.267685,1.00041,8.47561,7.47603,9.4755,1.00015
0.18,0.280062,1.00052,8.47287,7.47337,9.47271,1.00019
0.19,0.292224,1.00065,8.47002,7.4706,9.46977,1.00024
0.2,0.304014,1.00079,8.46704,7.46773,9.46672,1.00028
0.21,0.315545,1.00095,8.46395,7.46475,9.4635,1.00033
0.22,0.32682,1.00113,8.46074,7.46166,9.46013,1.00037
0.23,0.337802,1.00136,8.45742,7.45848,9.45664,1.00044
0.24,0.348524,1.0016,8.454,7.4552,9.45305,1.00052
0.25,0.358987,1.00184,8.45046,7.45184,9.44934,1.00059
0.26,0.369038,1.0021,8.44683,7.44836,9.44548,1.00066
0.27,0.379054,1.00239,8.44309,7.44479,9.4415,1.00074
0.28,0.388825,1.00269,8.43925,7.44112,9.43745,1.00085
0.29,0.398456,1.00301,8.43532,7.43737,9.43327,1.00096
0.3,0.407799,1.00339,8.43129,7.43356,9.42891,1.00105
0.31,0.416872,1.00376,8.42717,7.42966,9.42449,1.00116
0.32,0.42577,1.00413,8.42296,7.42569,9.42006,1.00131
0.33,0.434506,1.00452,8.41867,7.42164,9.41551,1.00144
0.34,0.442966,1.00495,8.41428,7.41752,9.41079,1.00157
0.35,0.451277,1.00542,8.40981,7.41332,9.40598,1.00173
0.36,0.459299,1.0059,8.40526,7.40906,9.4011,1.0019
0.37,0.467241,1.00643,8.40063,7.40474,9.39604,1.00205
0.38,0.475031,1.00696,8.39593,7.40034,9.39091,1.00221
0.39,0.482623,1.00753,8.39114,7.3959,9.38573,1.00241
0.4,0.489991,1.00815,8.38628,7.39141,9.38039,1.0026
0.41,0.497194,1.00876,8.38135,7.38686,9.37499,1.00277
0.42,0.504254,1.00941,8.37634,7.38222,9.36953,1.003
0.43,0.511137,1.0101,8.37127,7.3775,9.36387,1.00321
0.44,0.517861,1.0107,8.36612,7.37273,9.35829,1.00341
0.45,0.524433,1.01135,8.36092,7.36794,9.35273,1.00365
0.46,0.530974,1.01206,8.35564,7.36311,9.34696,1.00389
0.47,0.537271,1.01275,8.3503,7.35821,9.34114,1.0041
0.48,0.543425,1.01352,8.3449,7.35323,9.33518,1.00437
0.49,0.549371,1.01433,8.33944,7.34821,9.32907,1.00462
0.5,0.555244,1.01509,8.33392,7.34315,9.32299,1.00485
0.51,0.560894,1.01597,8.32834,7.33802,9.31673,1.00515
0.52,0.566522,1.01681,8.3227,7.33286,9.31045,1.00542
0.53,0.572036,1.01769,8.31701,7.32766,9.30406,1.00567
0.54,0.577444,1.01863,8.31127,7.3224,9.29757,1.00598
0.55,0.582632,1.01944,8.30547,7.31707,9.29121,1.00626
0.56,0.587795,1.02032,8.29962,7.31168,9.28469,1.00654
0.57,0.592821,1.02124,8.29372,7.30628,9.27811,1.00686
0.58,0.59771,1.02215,8.28777,7.30083,9.27146,1.00714
0.59,0.602495,1.02315,8.28177,7.29535,9.26468,1.00746
0.6,0.6072,1.0241,8.27572,7.28981,9.25793,1.00778
0.61,0.611733,1.02509,8.26963,7.28424,9.25102,1.00806
0.62,0.616264,1.02611,8.26349,7.27864,9.24414,1.00841
0.63,0.620665,1.02717,8.25731,7.273,9.23707,1.00872
0.64,0.624905,1.02815,8.25108,7.26735,9.23018,1.00904
0.65,0.629089,1.02915,8.24481,7.26168,9.22327,1.00938
0.66,0.633177,1.03014,8.2385,7.25593,9.21623,1.00969
0.67,0.637152,1.03117,8.23215,7.25011,9.20914,1.01005
0.68,0.640951,1.03226,8.22577,7.24429,9.20189,1.01038
0.69,0.644772,1.03333,8.21934,7.23847,9.19469,1.01071
0.7,0.648511,1.0345,8.21287,7.23263,9.18732,1.01107
0.71,0.652169,1.03557,8.20637,7.22671,9.18002,1.01139
0.72,0.655885,1.03676,8.19983,7.22077,9.17254,1.01176
0.73,0.659488,1.03782,8.19326,7.2148,9.16524,1.0121
0.74,0.662874,1.03892,8.18665,7.20878,9.15782,1.01245
0.75,0.666198,1.04004,8.18,7.20274,9.15039,1.01281
0.76,0.669541,1.04115,8.17333,7.19665,9.14285,1.01314
0.77,0.672783,1.04228,8.16662,7.1905,9.13532,1.01352
0.78,0.675984,1.0434,8.15987,7.18433,9.12771,1.01386
0.79,0.678846,1.04453,8.1531,7.17813,9.12009,1.01423
0.8,0.681876,1.04572,8.1463,7.17192,9.11237,1.01458
0.81,0.684877,1.04679,8.13947,7.16566,9.10478,1.01492
0.82,0.687857,1.04786,8.1326,7.15938,9.09723,1.0153
0.83,0.690769,1.04892,8.12571,7.15307,9.08959,1.01563
0.84,0.693613,1.05005,8.11879,7.14674,9.08189,1.016
0.85,0.696523,1.05119,8.11184,7.14041,9.07412,1.01634
0.86,0.699282,1.05233,8.10486,7.13404,9.06633,1.0167
0.87,0.701927,1.05346,8.09786,7.1276,9.05849,1.01705
0.88,0.704582,1.05458,8.09083,7.12114,9.05061,1.0174
0.89,0.707168,1.05572,8.08377,7.11468,9.04275,1.01776
0.9,0.709731,1.05678,8.07669,7.10821,9.03497,1.01808
0.91,0.712351,1.0579,8.06958,7.10168,9.0271,1.01845
0.92,0.714758,1.05896,8.06244,7.09513,9.01922,1.01877
0.93,0.717235,1.0601,8.05529,7.08855,9.01128,1.01914
0.94,0.719621,1.06117,8.0481,7.08194,9.00333,1.01946
0.95,0.722175,1.06229,8.0409,7.07532,8.99535,1.01982
0.96,0.724402,1.0634,8.03366,7.06863,8.98728,1.02015
0.97,0.726577,1.06442,8.02641,7.06189,8.97934,1.02048
0.98,0.7288,1.0654,8.01913,7.05516,8.97147,1.02082
0.99,0.731009,1.06639,8.01184,7.0484,8.96353,1.02114
1,0.733229,1.06742,8.00452,7.04162,8.95553,1.02148
1.01,0.735361,1.06842,7.99717,7.0348,8.94751,1.02178
1.02,0.737493,1.06948,7.98981,7.02798,8.93943,1.02213
1.03,0.739573,1.07046,7.98243,7.02113,8.93137,1.02242
1.04,0.741521,1.07156,7.97502,7.01429,8.92321,1.02277
1.05,0.743387,1.07251,7.9676,7.0074,8.91519,1.02306
1.06,0.745296,1.07348,7.96016,7.00044,8.90714,1.0234
1.07,0.747232,1.07439,7.95269,6.99348,8.89909,1.02369
1.08,0.749065,1.07541,7.94521,6.98654,8.89095,1.02401
1.09,0.750977,1.07636,7.93771,6.97958,8.88286,1.0243
1.1,0.752814,1.07735,7.9302,6.97259,8.87469,1.02462
1.11,0.754611,1.07829,7.92266,6.96558,8.86656,1.02491
1.12,0.756362,1.07927,7.91511,6.95853,8.85834,1.02521
1.13,0.758085,1.08012,7.90754,6.95149,8.85034,1.02549
1.14,0.759799,1.08099,7.89995,6.94439,8.84225,1.02578
1.15,0.761485,1.08181,7.89234,6.93725,8.83418,1.02607
1.16,0.763193,1.0827,7.88472,6.9301,8.82598,1.02634
1.17,0.7649,1.08357,7.87708,6.92294,8.81784,1.02662
1.18,0.766525,1.08445,7.86942,6.91576,8.80961,1.02689
1.19,0.768236,1.0853,7.86175,6.90856,8.80143,1.02717
1.2,0.769862,1.08617,7.85406,6.90134,8.79318,1.02743
1.21,0.771375,1.08698,7.84636,6.89412,8.78506,1.02771
1.22,0.772889,1.08781,7.83864,6.8869,8.77685,1.02795
1.23,0.774353,1.08862,7.8309,6.87962,8.76866,1.02823
1.24,0.775943,1.0894,7.82315,6.87229,8.76042,1.02847
1.25,0.777466,1.09023,7.81538,6.865,8.75218,1.02873
1.26,0.779036,1.09103,7.8076,6.8577,8.74392,1.02896
1.27,0.780509,1.09188,7.7998,6.85035,8.73559,1.02923
1.28,0.782023,1.09258,7.79199,6.843,8.72743,1.02945
1.29,0.783482,1.0933,7.78417,6.83561,8.71927,1.0297
1.3,0.78494,1.09398,7.77632,6.82822,8.71109,1.02992
1.31,0.786295,1.09474,7.76847,6.82079,8.70282,1.03017
1.32,0.787717,1.0954,7.7606,6.8133,8.69458,1.03037
1.33,0.789121,1.09615,7.75272,6.80581,8.68624,1.03062
1.34,0.790421,1.09682,7.74482,6.79831,8.67797,1.03082
1.35,0.791807,1.09756,7.73691,6.79079,8.66959,1.03105
1.36,0.793131,1.09817,7.72899,6.78324,8.66138,1.03126
1.37,0.794588,1.09884,7.72105,6.77569,8.65308,1.03147
1.38,0.795852,1.09946,7.7131,6.76814,8.64482,1.03167
1.39,0.797112,1.10015,7.70513,6.76059,8.63647,1.03188
1.4,0.798407,1.10076,7.69716,6.75296,8.62815,1.03207
1.41,0.799661,1.10139,7.68917,6.74531,8.61979,1.03227
1.42,0.800943,1.10205,7.68116,6.73769,8.6114,1.03246
1.43,0.802208,1.10265,7.67315,6.73007,8.6031,1.03265
1.44,0.803498,1.1032,7.66512,6.72241,8.59485,1.03283
1.45,0.804778,1.10375,7.65708,6.71474,8.58657,1.03301
1.46,0.806011,1.10433,7.64903,6.70704,8.57821,1.0332
1.47,0.807259,1.10489,7.64096,6.69933,8.56987,1.03337
1.48,0.808559,1.10547,7.63288,6.69156,8.56145,1.03355
1.49,0.809801,1.10597,7.62479,6.68376,8.55308,1.03371
1.5,0.81096,1.10657,7.61669,6.67596,8.54461,1.0339
1.51,0.812271,1.10703,7.60857,6.66816,8.5363,1.03404
1.52,0.81342,1.10756,7.60045,6.66032,8.5279,1.03423
1.53,0.814704,1.10801,7.59231,6.65248,8.51954,1.03436
1.54,0.815834,1.10856,7.58415,6.64463,8.5111,1.03455
1.55,0.817062,1.10903,7.57599,6.63679,8.50269,1.03467
1.56,0.81832,1.10955,7.56781,6.62889,8.49425,1.03485
1.57,0.819523,1.11001,7.55963,6.62095,8.48575,1.03497
1.58,0.820728,1.11048,7.55142,6.61304,8.47736,1.03515
1.59,0.821839,1.11088,7.54321,6.60513,8.469,1.03527
1.6,0.823014,1.1113,7.53499,6.59717,8.46062,1.03543
1.61,0.824118,1.11174,7.52675,6.58921,8.45216,1.03556
1.62,0.825155,1.11216,7.51851,6.58122,8.44372,1.0357
1.63,0.82626,1.11262,7.51025,6.57323,8.4352,1.03583
1.64,0.827338,1.11302,7.50198,6.56517,8.42671,1.03596
1.65,0.828428,1.11344,7.49371,6.5571,8.41817,1.0361
1.66,0.829369,1.11378,7.48542,6.54903,8.40975,1.03621
1.67,0.830444,1.11417,7.47712,6.54095,8.40127,1.03635
1.68,0.831534,1.1145,7.46881,6.53285,8.39278,1.03645
1.69,0.832717,1.11491,7.46049,6.52474,8.38426,1.0366
1.7,0.833721,1.11526,7.45216,6.51664,8.37571,1.03668
1.71,0.834683,1.11568,7.44382,6.50853,8.36719,1.03683
1.72,0.835733,1.11602,7.43546,6.50034,8.35857,1.03691
1.73,0.836657,1.11633,7.4271,6.49216,8.35013,1.03705
1.74,0.837647,1.11664,7.41873,6.48402,8.34164,1.03714
1.75,0.8386,1.11696,7.41035,6.47586,8.33316,1.03727
1.76,0.839528,1.11731,7.40196,6.46769,8.32459,1.03736
1.77,0.840459,1.11764,7.39356,6.45949,8.31604,1.03747
1.78,0.841403,1.118,7.38515,6.45131,8.30743,1.03758
1.79,0.842342,1.11833,7.37674,6.44307,8.29882,1.03767
1.8,0.843281,1.11864,7.36831,6.43481,8.29024,1.03778
1.81,0.84428,1.11891,7.35987,6.42655,8.28168,1.03786
1.82,0.845228,1.11922,7.35142,6.41829,8.27312,1.03798
1.83,0.846159,1.1195,7.34297,6.41,8.26449,1.03804
1.84,0.847098,1.11983,7.3345,6.40173,8.25589,1.03817
1.85,0.847993,1.12013,7.32603,6.39345,8.24722,1.03823
1.86,0.84894,1.1205,7.31754,6.38518,8.23856,1.03835
1.87,0.849879,1.12077,7.30905,6.37684,8.22989,1.03843
1.88,0.850769,1.121,7.30055,6.3685,8.22136,1.03853
1.89,0.851668,1.12126,7.29204,6.36019,8.21277,1.03861
1.9,0.852513,1.12153,7.28352,6.35187,8.20414,1.03869
1.91,0.853389,1.12182,7.27499,6.34353,8.19548,1.03878
1.92,0.854257,1.1221,7.26645,6.33517,8.18677,1.03885
1.93,0.855122,1.12241,7.2579,6.32681,8.1781,1.03895
1.94,0.855989,1.12268,7.24935,6.31841,8.16933,1.039
1.95,0.856739,1.12292,7.24078,6.30997,8.1607,1.03911
1.96,0.857665,1.12315,7.23221,6.30155,8.15201,1.03917
1.97,0.858489,1.12342,7.22363,6.29313,8.14332,1.03927
1.98,0.859222,1.12366,7.21504,6.28468,8.13458,1.03933
1.99,0.860061,1.12394,7.20645,6.27624,8.12584,1.03942
2,0.860826,1.12421,7.19785,6.2678,8.11708,1.03949
2.01,0.861666,1.12451,7.18923,6.25937,8.10828,1.03956
2.02,0.862426,1.12469,7.18061,6.25087,8.09963,1.03965
2.03,0.863211,1.12487,7.17199,6.24237,8.09093,1.03969
2.04,0.864003,1.12512,7.16335,6.23392,8.08224,1.03979
2.05,0.864765,1.12536,7.15471,6.22545,8.07346,1.03983
2.06,0.865607,1.12564,7.14606,6.21697,8.06469,1.03993
2.07,0.866355,1.12587,7.1374,6.20846,8.05589,1.03999
2.08,0.867151,1.12617,7.12873,6.19996,8.04705,1.04007
2.09,0.867913,1.12637,7.12006,6.1914,8.03828,1.04014
2.1,0.868731,1.12657,7.11137,6.18282,8.02949,1.0402
2.11,0.869553,1.12678,7.10268,6.17425,8.02072,1.04028
2.12,0.870311,1.12699,7.09398,6.16567,8.01187,1.04032
2.13,0.87109,1.12723,7.08528,6.15708,8.00306,1.04042
2.14,0.872111,1.12744,7.07656,6.14849,7.99418,1.04045
2.15,0.87278,1.12774,7.06784,6.13991,7.98527,1.04055
2.16,0.873524,1.12792,7.05911,6.13131,7.97648,1.0406
2.17,0.874264,1.12806,7.05037,6.12265,7.9677,1.04067
2.18,0.875007,1.12823,7.04162,6.11403,7.95893,1.04073
2.19,0.875764,1.12844,7.03287,6.10542,7.95006,1.04078
2.2,0.876397,1.12864,7.02411,6.09677,7.94122,1.04086
2.21,0.877181,1.12883,7.01534,6.08813,7.93232,1.04089
2.22,0.877954,1.12909,7.00656,6.07947,7.92341,1.04099
2.23,0.878596,1.12926,6.99778,6.0708,7.91453,1.04102
2.24,0.879232,1.12942,6.98899,6.06207,7.90567,1.0411
2.25,0.879927,1.12957,6.9802,6.05335,7.89681,1.04115
2.26,0.880606,1.12976,6.9714,6.04464,7.88788,1.04121
2.27,0.881324,1.12993,6.96259,6.0359,7.87898,1.04128
2.28,0.882037,1.13011,6.95377,6.02717,7.87003,1.04131
2.29,0.882666,1.13034,6.94495,6.01845,7.86106,1.04139
2.3,0.883267,1.13049,6.93612,6.00974,7.85216,1.04142
2.31,0.883895,1.13063,6.92728,6.00095,7.8433,1.0415
2.32,0.884535,1.13073,6.91844,5.99218,7.83443,1.04155
2.33,0.88509,1.13094,6.90959,5.98345,7.82547,1.04161
2.34,0.88564,1.13112,6.90074,5.97471,7.81654,1.04167
2.35,0.886254,1.13132,6.89188,5.96597,7.80754,1.04171
2.36,0.88684,1.13156,6.88302,5.95721,7.79854,1.04178
2.37,0.88744,1.13172,6.87415,5.94846,7.78956,1.04181
2.38,0.888069,1.13191,6.86527,5.93966,7.78061,1.0419
2.39,0.888697,1.13204,6.85639,5.93085,7.77166,1.04194
2.4,0.889267,1.13225,6.8475,5.92205,7.76265,1.042
2.41,0.88982,1.13241,6.8386,5.91324,7.75366,1.04206
2.42,0.890457,1.1326,6.8297,5.90444,7.74463,1.0421
2.43,0.890969,1.13283,6.82079,5.89563,7.73557,1.04217
2.44,0.891516,1.13298,6.81188,5.88686,7.72659,1.04219
2.45,0.892115,1.13315,6.80296,5.87803,7.71763,1.04228
2.46,0.892665,1.13326,6.79404,5.86918,7.70867,1.04231
2.47,0.893206,1.13348,6.78511,5.86037,7.69963,1.04238
2.48,0.893675,1.13367,6.77618,5.85156,7.69061,1.04243
2.49,0.894242,1.13387,6.76724,5.84274,7.68153,1.04247
2.5,0.894787,1.13411,6.75829,5.8339,7.67243,1.04255
2.51,0.895286,1.13426,6.74934,5.82508,7.66339,1.04256
2.52,0.895828,1.13446,6.74039,5.8162,7.65435,1.04265
2.53,0.896373,1.13458,6.73143,5.8073,7.64532,1.04269
2.54,0.896926,1.13478,6.72246,5.79842,7.63622,1.04275
2.55,0.897436,1.13496,6.71349,5.78954,7.62715,1.04281
2.56,0.898028,1.13514,6.70451,5.78065,7.61804,1.04284
2.57,0.898577,1.13538,6.69553,5.77177,7.60889,1.04291
2.58,0.899029,1.1355,6.68654,5.76291,7.59987,1.04293
2.59,0.899514,1.13568,6.67755,5.75401,7.59083,1.04302
2.6,0.899994,1.13577,6.66855,5.74506,7.5818,1.04305
2.61,0.90047,1.13598,6.65955,5.73618,7.57268,1.04311
2.62,0.900882,1.13618,6.65055,5.72731,7.56358,1.04317
2.63,0.901429,1.13637,6.64153,5.71842,7.55444,1.0432
2.64,0.901867,1.13663,6.63252,5.70952,7.54527,1.04328
2.65,0.902406,1.13676,6.6235,5.70063,7.53619,1.0433
2.66,0.902913,1.13696,6.61447,5.69169,7.52707,1.04338
2.67,0.903429,1.13709,6.60544,5.68273,7.51797,1.04342
2.68,0.903804,1.13728,6.5964,5.67378,7.50882,1.04348
2.69,0.904329,1.13747,6.58736,5.66483,7.49966,1.04353
2.7,0.904955,1.13763,6.57832,5.65588,7.4905,1.04356
2.71,0.905361,1.13788,6.56927,5.64692,7.48128,1.04364
2.72,0.905806,1.13799,6.56021,5.638,7.47223,1.04367
2.73,0.90621,1.13815,6.55115,5.62903,7.46312,1.04374
2.74,0.906683,1.13827,6.54209,5.62002,7.45401,1.04378
2.75,0.90715,1.13844,6.53302,5.61107,7.44486,1.04382
2.76,0.907596,1.13865,6.52394,5.60212,7.43567,1.04389
2.77,0.907999,1.13879,6.51487,5.59315,7.4265,1.0439
2.78,0.908375,1.13903,6.50578,5.58417,7.41728,1.04399
2.79,0.908779,1.13916,6.4967,5.5752,7.40816,1.04402
2.8,0.90928,1.13932,6.48761,5.56618,7.399,1.04408
2.81,0.909737,1.13946,6.47851,5.55714,7.38981,1.04413
2.82,0.91025,1.13959,6.46941,5.54812,7.38064,1.04416
2.83,0.910747,1.13979,6.46031,5.53909,7.37141,1.04423
2.84,0.91115,1.13993,6.4512,5.53007,7.3622,1.04425
2.85,0.911559,1.14012,6.44209,5.52104,7.35299,1.04432
2.86,0.911937,1.14025,6.43297,5.51205,7.34386,1.04436
2.87,0.912337,1.14035,6.42385,5.503,7.33472,1.0444
2.88,0.912592,1.14051,6.41473,5.49393,7.32551,1.04446
2.89,0.912945,1.14064,6.4056,5.48493,7.31631,1.04447
2.9,0.913308,1.14087,6.39647,5.47592,7.30706,1.04455
2.91,0.913674,1.14105,6.38733,5.4669,7.29781,1.04458
2.92,0.913966,1.14123,6.3782,5.45786,7.28859,1.04464
2.93,0.914351,1.14141,6.36905,5.44884,7.27938,1.04469
2.94,0.914784,1.1415,6.35991,5.43976,7.27018,1.04472
2.95,0.915123,1.14169,6.35076,5.43067,7.26092,1.04479
2.96,0.915467,1.14181,6.34161,5.42159,7.25169,1.04481
2.97,0.915934,1.142,6.33245,5.4125,7.24241,1.04488
2.98,0.916313,1.14219,6.32329,5.40342,7.2331,1.04492
2.99,0.916547,1.14229,6.31413,5.39433,7.22392,1.04496
3,0.916963,1.14245,6.30496,5.38528,7.21472,1.04502
3.01,0.917292,1.14251,6.29579,5.37615,7.20552,1.04503
3.02,0.917652,1.14269,6.28661,5.36703,7.19625,1.04511
3.03,0.918002,1.14285,6.27744,5.35796,7.18697,1.04514
3.04,0.918337,1.14301,6.26826,5.34886,7.1777,1.04519
3.05,0.91865,1.14322,6.25907,5.33976,7.16837,1.04525
3.06,0.918975,1.14331,6.24988,5.33065,7.15914,1.04527
3.07,0.919316,1.1435,6.24069,5.32155,7.14987,1.04534
3.08,0.919647,1.14359,6.2315,5.31238,7.1406,1.04537
3.09,0.920031,1.14374,6.2223,5.30324,7.13132,1.04543
3.1,0.920397,1.14391,6.2131,5.2941,7.122,1.04547
3.11,0.920747,1.14402,6.20389,5.28494,7.1127,1.0455
3.12,0.921024,1.1442,6.19468,5.2758,7.10338,1.04557
3.13,0.92132,1.14427,6.18547,5.26666,7.09417,1.04558
3.14,0.921678,1.14442,6.17626,5.25754,7.08492,1.04565
3.15,0.921936,1.14452,6.16704,5.24833,7.07562,1.04569
3.16,0.922249,1.14464,6.15782,5.23918,7.06634,1.04572
3.17,0.922586,1.14484,6.1486,5.23006,7.05701,1.04578
3.18,0.922886,1.14497,6.13937,5.22092,7.04766,1.04579
3.19,0.923226,1.14516,6.13014,5.21177,7.03836,1.04586
3.2,0.923556,1.14529,6.12091,5.20263,7.02906,1.04589
3.21,0.923983,1.1454,6.11167,5.19346,7.01978,1.04594
3.22,0.924224,1.14554,6.10243,5.18424,7.01044,1.04599
3.23,0.924632,1.14562,6.09318,5.17505,7.00112,1.04599
3.24,0.925001,1.1458,6.08394,5.16586,6.99177,1.04607
3.25,0.925206,1.14594,6.07468,5.15665,6.98238,1.04609
3.26,0.925467,1.14602,6.06543,5.14745,6.97313,1.04613
3.27,0.925879,1.14615,6.05618,5.13829,6.96384,1.04618
3.28,0.926181,1.1462,6.04692,5.12907,6.95455,1.04619
3.29,0.926523,1.14633,6.03765,5.11982,6.94522,1.04625
3.3,0.926945,1.14644,6.02839,5.11063,6.93586,1.04627
3.31,0.927275,1.14659,6.01911,5.10143,6.92652,1.04632
3.32,0.927518,1.14674,6.00984,5.09222,6.91713,1.04635
3.33,0.927812,1.14681,6.00056,5.083,6.90783,1.04637
3.34,0.92813,1.14695,5.99129,5.07379,6.8985,1.04643
3.35,0.928405,1.14701,5.982,5.06452,6.88915,1.04643
3.36,0.928671,1.14712,5.97272,5.05525,6.87981,1.04649
3.37,0.928979,1.14723,5.96343,5.046,6.87042,1.04652
3.38,0.92928,1.14733,5.95414,5.03673,6.86103,1.04654
3.39,0.929531,1.14745,5.94485,5.02747,6.85169,1.04659
3.4,0.929957,1.14748,5.93555,5.01822,6.84239,1.0466
3.41,0.930216,1.14759,5.92625,5.00899,6.83308,1.04665
3.42,0.930458,1.14765,5.91695,4.99968,6.82371,1.04668
3.43,0.930696,1.14772,5.90764,4.9904,6.81436,1.0467
3.44,0.930963,1.14788,5.89833,4.98116,6.80497,1.04675
3.45,0.931197,1.14798,5.88902,4.97191,6.79554,1.04675
3.46,0.931435,1.14811,5.87971,4.96266,6.7862,1.04682
3.47,0.931698,1.14822,5.87039,4.95342,6.77684,1.04684
3.48,0.931991,1.1483,5.86108,4.94416,6.76748,1.04687
3.49,0.932173,1.14843,5.85176,4.93485,6.75809,1.04693
3.5,0.932449,1.1485,5.84243,4.92557,6.74869,1.04692
3.51,0.932621,1.14865,5.83311,4.9163,6.73928,1.04699
3.52,0.932865,1.14878,5.82378,4.90702,6.72985,1.04701
3.53,0.933016,1.14881,5.81445,4.89775,6.72055,1.04703
3.54,0.933235,1.14893,5.80512,4.88851,6.7112,1.04707
3.55,0.933537,1.149,5.79579,4.87923,6.70183,1.04708
3.56,0.933795,1.14909,5.78645,4.86991,6.69245,1.04713
3.57,0.934045,1.14922,5.77711,4.86066,6.68302,1.04715
3.58,0.934289,1.14935,5.76777,4.8514,6.6736,1.04718
3.59,0.934502,1.14949,5.75843,4.84213,6.66419,1.04722
3.6,0.934777,1.14956,5.74908,4.83286,6.65481,1.04722
3.61,0.935037,1.1497,5.73973,4.82359,6.64543,1.04728
3.62,0.935307,1.14979,5.73038,4.81427,6.636,1.0473
3.63,0.935634,1.14988,5.72103,4.80495,6.62659,1.04733
3.64,0.935643,1.15001,5.71167,4.79565,6.61715,1.04737
3.65,0.935937,1.1501,5.70231,4.78634,6.60768,1.04736
3.66,0.93614,1.1502,5.69295,4.77704,6.59834,1.04743
3.67,0.936394,1.15026,5.68359,4.76774,6.58897,1.04744
3.68,0.936521,1.15035,5.67423,4.75847,6.5796,1.04747
3.69,0.936626,1.15043,5.66486,4.74911,6.57019,1.04751
3.7,0.936918,1.1505,5.65549,4.7398,6.56075,1.0475
3.71,0.937145,1.15067,5.64612,4.73053,6.55132,1.04756
3.72,0.937363,1.15079,5.63675,4.72123,6.54185,1.04758
3.73,0.937637,1.15088,5.62738,4.71194,6.53247,1.04761
3.74,0.93792,1.151,5.618,4.70264,6.52306,1.04765
3.75,0.938157,1.15106,5.60862,4.69331,6.51362,1.04764
