time,velocity,ratio,centerX,Xmax,Xmin,Ymax
0,0,1,4.75,3.75,5.75,1
0.01,0.0196694,0.99999,4.74991,3.74989,5.74993,1.00001
0.02,0.0387725,1.00001,4.74963,3.74962,5.74963,1.00001
0.03,0.0572996,1.00003,4.74917,3.74916,5.74914,1.00002
0.04,0.0753634,1.00006,4.74853,3.74852,5.74846,1.00003
0.05,0.0928995,1.00009,4.74771,3.7477,5.74758,1.00003
0.06,0.109993,1.00013,4.74671,3.74671,5.74652,1.00004
0.07,0.126644,1.00018,4.74554,3.74556,5.74528,1.00004
0.08,0.142864,1.00023,4.74421,3.74424,5.74387,1.00004
0.09,0.158679,1.00028,4.74272,3.74277,5.74228,1.00004
0.1,0.174103,1.00036,4.74108,3.74115,5.74054,1.00006
0.11,0.189149,1.00046,4.73928,3.73939,5.73864,1.00009
0.12,0.203808,1.00057,4.73733,3.73748,5.73659,1.00012
0.13,0.21811,1.00066,4.73523,3.73545,5.73441,1.00014
0.14,0.232042,1.00075,4.733,3.73329,5.73213,1.00017
0.15,0.245672,1.00085,4.73062,3.73098,5.7297,1.00021
0.16,0.258987,1.00095,4.72811,3.72855,5.72713,1.00024
0.17,0.271921,1.00107,4.72547,3.726,5.72439,1.00027
0.18,0.284567,1.00125,4.7227,3.72333,5.7215,1.00033
0.19,0.296967,1.00146,4.71981,3.72056,5.71844,1.0004
0.2,0.309006,1.00168,4.71679,3.71769,5.71527,1.00046
0.21,0.320793,1.00191,4.71366,3.7147,5.71196,1.00053
0.22,0.332317,1.00215,4.7104,3.7116,5.70849,1.00059
0.23,0.343547,1.00246,4.70704,3.7084,5.70486,1.00069
0.24,0.354528,1.00281,4.70356,3.70512,5.70109,1.00079
0.25,0.365222,1.00318,4.69997,3.70176,5.69721,1.0009
0.26,0.375771,1.00355,4.69628,3.69827,5.69318,1.001
0.27,0.385984,1.00395,4.69248,3.69468,5.689,1.0011
0.28,0.39596,1.00441,4.68858,3.69099,5.68469,1.00125
0.29,0.405785,1.00489,4.68458,3.68721,5.68023,1.00139
0.3,0.415258,1.00541,4.68049,3.68337,5.67563,1.00152
0.31,0.424518,1.00596,4.6763,3.67945,5.67091,1.00166
0.32,0.433657,1.00655,4.67202,3.67548,5.66613,1.00184
0.33,0.442509,1.00715,4.66765,3.67144,5.66125,1.00202
0.34,0.451127,1.00778,4.66319,3.66732,5.65622,1.00219
0.35,0.459431,1.00846,4.65864,3.66313,5.65111,1.00239
0.36,0.467661,1.00918,4.65402,3.65888,5.64588,1.00261
0.37,0.475754,1.00993,4.64931,3.65459,5.64051,1.00282
0.38,0.483564,1.0107,4.64452,3.65022,5.63505,1.00304
0.39,0.491252,1.01155,4.63966,3.6458,5.62948,1.0033
0.4,0.498432,1.01243,4.63472,3.64134,5.62379,1.00354
0.41,0.505595,1.01333,4.6297,3.63684,5.61798,1.00377
0.42,0.512569,1.01432,4.62462,3.63223,5.61202,1.00407
0.43,0.519365,1.01526,4.61947,3.62754,5.60603,1.00435
0.44,0.525996,1.01617,4.61425,3.62277,5.60002,1.00461
0.45,0.53239,1.01718,4.60896,3.61799,5.59391,1.00493
0.46,0.538681,1.01821,4.60361,3.61319,5.58771,1.00524
0.47,0.544845,1.01925,4.5982,3.60836,5.58142,1.00553
0.48,0.550747,1.02039,4.59273,3.60347,5.57501,1.00587
0.49,0.556577,1.02153,4.5872,3.59852,5.56852,1.00621
0.5,0.562284,1.02271,4.58162,3.59355,5.56191,1.00653
0.51,0.567846,1.02395,4.57597,3.58853,5.55522,1.0069
0.52,0.573329,1.02524,4.57027,3.58345,5.54838,1.00726
0.53,0.578614,1.02651,4.56452,3.57835,5.5415,1.0076
0.54,0.583768,1.02787,4.55871,3.5732,5.53455,1.008
0.55,0.588794,1.0292,4.55286,3.56797,5.52751,1.00838
0.56,0.593763,1.03054,4.54695,3.56268,5.5204,1.00875
0.57,0.59848,1.03196,4.54099,3.55735,5.5132,1.00918
0.58,0.603088,1.03339,4.53499,3.55201,5.50593,1.00958
0.59,0.607618,1.03488,4.52894,3.54666,5.49856,1.00999
0.6,0.611988,1.03642,4.52285,3.54127,5.49113,1.01043
0.61,0.616113,1.03797,4.51671,3.53584,5.48358,1.01085
0.62,0.62011,1.03955,4.51054,3.53041,5.47604,1.01129
0.63,0.62394,1.04116,4.50432,3.52494,5.46845,1.01175
0.64,0.627747,1.04276,4.49807,3.51946,5.46081,1.01218
0.65,0.631417,1.04446,4.49178,3.51398,5.45309,1.01266
0.66,0.634956,1.04616,4.48545,3.50845,5.4453,1.01313
0.67,0.638484,1.04784,4.47909,3.50283,5.43743,1.01358
0.68,0.641812,1.04959,4.47269,3.49714,5.42947,1.01408
0.69,0.645039,1.05138,4.46626,3.49146,5.42142,1.01455
0.7,0.648198,1.05321,4.4598,3.48582,5.41334,1.01504
0.71,0.651221,1.05509,4.45331,3.48016,5.40521,1.01555
0.72,0.654322,1.05694,4.44678,3.47446,5.39704,1.01602
0.73,0.657215,1.05889,4.44023,3.46876,5.3888,1.01655
0.74,0.66006,1.06083,4.43365,3.46303,5.38051,1.01706
0.75,0.662825,1.06281,4.42704,3.45727,5.37214,1.01758
0.76,0.665481,1.06485,4.4204,3.45152,5.36373,1.01812
0.77,0.668023,1.06686,4.41373,3.4457,5.35527,1.01862
0.78,0.670453,1.06892,4.40704,3.43983,5.3468,1.01919
0.79,0.672847,1.07095,4.40033,3.43394,5.33828,1.01973
0.8,0.675225,1.07304,4.3936,3.42806,5.32972,1.02028
0.81,0.67753,1.07519,4.38683,3.42217,5.3211,1.02085
0.82,0.679761,1.07732,4.38005,3.41627,5.31242,1.02139
0.83,0.681918,1.07957,4.37325,3.41034,5.30367,1.02198
0.84,0.683998,1.08182,4.36642,3.40443,5.29484,1.02255
0.85,0.685967,1.08408,4.35957,3.39848,5.28603,1.02312
0.86,0.687894,1.0864,4.35271,3.39255,5.27716,1.02371
0.87,0.689767,1.0887,4.34582,3.38662,5.26826,1.02427
0.88,0.691595,1.09106,4.33892,3.38062,5.25932,1.02489
0.89,0.693264,1.09338,4.332,3.37455,5.25033,1.02547
0.9,0.695467,1.09576,4.32506,3.36848,5.24127,1.02607
0.91,0.697273,1.09823,4.3181,3.36244,5.23213,1.02668
0.92,0.698908,1.10065,4.31112,3.35641,5.22304,1.02725
0.93,0.70049,1.10313,4.30413,3.35034,5.21393,1.02789
0.94,0.70196,1.10559,4.29712,3.34428,5.2048,1.02848
0.95,0.703435,1.1081,4.29009,3.33819,5.19563,1.02911
0.96,0.704871,1.11063,4.28305,3.3321,5.1864,1.02973
0.97,0.706231,1.11317,4.276,3.326,5.17714,1.03032
0.98,0.707474,1.11579,4.26894,3.31985,5.16781,1.03096
0.99,0.708646,1.11833,4.26186,3.31365,5.15848,1.03156
1,0.709857,1.12094,4.25477,3.30745,5.14911,1.03219
1.01,0.71104,1.12357,4.24767,3.30126,5.13971,1.03281
1.02,0.712118,1.12623,4.24055,3.29508,5.13029,1.03343
1.03,0.713175,1.12893,4.23343,3.28887,5.12083,1.03407
1.04,0.714241,1.13161,4.22629,3.28266,5.11134,1.03467
1.05,0.715367,1.13439,4.21915,3.27646,5.10183,1.03534
1.06,0.716146,1.13716,4.21199,3.27025,5.09228,1.03596
1.07,0.717003,1.13998,4.20483,3.26407,5.08273,1.03662
1.08,0.717818,1.1428,4.19766,3.25785,5.07314,1.03726
1.09,0.718621,1.14558,4.19048,3.25156,5.06355,1.03789
1.1,0.719368,1.14839,4.18329,3.24522,5.05393,1.03855
1.11,0.720146,1.15121,4.1761,3.23894,5.04429,1.03917
1.12,0.720916,1.15414,4.16889,3.23269,5.03463,1.03984
1.13,0.721646,1.15704,4.16168,3.22642,5.02495,1.04048
1.14,0.722303,1.15997,4.15447,3.22016,5.01526,1.04113
1.15,0.722934,1.16292,4.14724,3.21388,5.00555,1.04179
1.16,0.723484,1.16585,4.14001,3.2076,4.99583,1.0424
1.17,0.724021,1.16886,4.13278,3.20131,4.98609,1.04308
1.18,0.72459,1.17182,4.12554,3.19499,4.97634,1.04371
1.19,0.725169,1.17479,4.11829,3.18861,4.96658,1.04437
1.2,0.725691,1.17777,4.11104,3.18223,4.95681,1.04502
1.21,0.726191,1.18075,4.10378,3.17587,4.94703,1.04565
1.22,0.726694,1.18381,4.09652,3.16953,4.93724,1.04632
1.23,0.727272,1.1868,4.08925,3.16315,4.92745,1.04693
1.24,0.727648,1.18987,4.08198,3.15679,4.91764,1.04759
1.25,0.728043,1.19292,4.0747,3.15042,4.90783,1.04823
1.26,0.728397,1.19601,4.06742,3.14406,4.89801,1.04886
1.27,0.72881,1.19913,4.06014,3.13772,4.88818,1.04951
1.28,0.73,1.2022,4.05285,3.13132,4.87835,1.05014
1.29,0.730945,1.20531,4.04555,3.12485,4.86849,1.05081
1.3,0.731563,1.20838,4.03824,3.11839,4.85862,1.05143
1.31,0.732289,1.21156,4.03092,3.11196,4.84874,1.05211
1.32,0.732856,1.21473,4.0236,3.10554,4.83886,1.05275
1.33,0.733319,1.2179,4.01627,3.0991,4.82897,1.05341
1.34,0.733709,1.22111,4.00894,3.09267,4.81908,1.05407
1.35,0.734225,1.22428,4.0016,3.08621,4.80918,1.0547
1.36,0.734418,1.22753,3.99426,3.07976,4.79928,1.05538
1.37,0.734791,1.23073,3.98692,3.07329,4.78937,1.05601
1.38,0.735051,1.23395,3.97957,3.06678,4.77946,1.05669
1.39,0.735352,1.23714,3.97222,3.06023,4.76955,1.05733
1.4,0.735698,1.24034,3.96487,3.05369,4.75964,1.05798
1.41,0.735784,1.24359,3.95751,3.04718,4.74973,1.05864
1.42,0.736007,1.24681,3.95015,3.04066,4.73981,1.05926
1.43,0.736116,1.2501,3.9428,3.03414,4.72989,1.05994
1.44,0.736198,1.25335,3.93544,3.02763,4.71999,1.06056
1.45,0.736294,1.25663,3.92808,3.02111,4.71009,1.06121
1.46,0.736526,1.25994,3.92072,3.01463,4.7002,1.06185
1.47,0.736657,1.26321,3.91335,3.00812,4.69031,1.06247
1.48,0.736676,1.26647,3.90599,3.00154,4.68041,1.06312
1.49,0.736905,1.26964,3.89862,2.99491,4.67053,1.06372
1.5,0.737015,1.27294,3.89125,2.98833,4.66064,1.06438
1.51,0.737047,1.27622,3.88389,2.9818,4.65076,1.06499
1.52,0.737107,1.27954,3.87652,2.97526,4.6409,1.06562
1.53,0.737065,1.28284,3.86915,2.96872,4.63105,1.06625
1.54,0.737083,1.28611,3.86178,2.96218,4.62123,1.06687
1.55,0.737059,1.28941,3.85441,2.95563,4.61145,1.06751
1.56,0.737097,1.29263,3.84704,2.94909,4.6017,1.0681
1.57,0.737104,1.29587,3.83967,2.9425,4.59199,1.06876
1.58,0.737107,1.29901,3.8323,2.93588,4.58231,1.06937
1.59,0.737143,1.30218,3.82494,2.92927,4.57268,1.07001
1.6,0.737227,1.30533,3.81756,2.92269,4.56308,1.07063
1.61,0.737202,1.30845,3.8102,2.9161,4.55352,1.07124
1.62,0.737177,1.31158,3.80283,2.90951,4.54399,1.07188
1.63,0.737136,1.31464,3.79546,2.90293,4.5345,1.07246
1.64,0.737113,1.31776,3.78809,2.89634,4.52504,1.07312
1.65,0.737083,1.3208,3.78072,2.88978,4.51563,1.07371
1.66,0.737067,1.32387,3.77335,2.8832,4.50623,1.07434
1.67,0.736866,1.32685,3.76598,2.87656,4.49687,1.07495
1.68,0.736801,1.32975,3.75861,2.86987,4.48754,1.07555
1.69,0.736673,1.33274,3.75125,2.86325,4.47823,1.07618
1.7,0.73661,1.33564,3.74388,2.85665,4.46898,1.07675
1.71,0.736504,1.33861,3.73652,2.85004,4.45975,1.07739
1.72,0.736443,1.3415,3.72916,2.84344,4.45056,1.07798
1.73,0.736323,1.34438,3.7218,2.83682,4.4414,1.07858
1.74,0.736211,1.34724,3.71444,2.83021,4.43226,1.07917
1.75,0.736118,1.35006,3.70707,2.8236,4.42315,1.07975
1.76,0.736032,1.35286,3.69972,2.81693,4.41407,1.08036
1.77,0.735962,1.35557,3.69236,2.81024,4.405,1.08091
1.78,0.735915,1.35834,3.685,2.80356,4.39599,1.08153
1.79,0.735782,1.36106,3.67765,2.79691,4.38698,1.08209
1.8,0.735653,1.36381,3.67029,2.79025,4.37801,1.0827
1.81,0.735514,1.36652,3.66294,2.7836,4.36906,1.08328
1.82,0.735337,1.36924,3.65558,2.77696,4.36011,1.08386
1.83,0.734907,1.37195,3.64824,2.77032,4.35122,1.08446
1.84,0.734742,1.37463,3.64089,2.76372,4.34234,1.08501
1.85,0.734507,1.37732,3.63355,2.75708,4.33351,1.08562
1.86,0.734318,1.37987,3.6262,2.75039,4.3247,1.08617
1.87,0.734082,1.38245,3.61886,2.74365,4.3159,1.08677
1.88,0.733885,1.38503,3.61153,2.737,4.30713,1.08734
1.89,0.733613,1.38762,3.60419,2.73036,4.29839,1.08791
1.9,0.733439,1.39023,3.59686,2.72372,4.28964,1.0885
1.91,0.733319,1.39277,3.58952,2.71709,4.28093,1.08904
1.92,0.733208,1.39535,3.5822,2.71044,4.27225,1.08964
1.93,0.733039,1.39787,3.57487,2.70381,4.26357,1.09018
1.94,0.732872,1.40042,3.56754,2.69716,4.25492,1.09076
1.95,0.732682,1.40287,3.56021,2.69046,4.2463,1.09132
1.96,0.732499,1.40529,3.55289,2.68374,4.23768,1.09187
1.97,0.732337,1.40777,3.54557,2.67704,4.22906,1.09244
1.98,0.732124,1.41015,3.53824,2.67038,4.22051,1.09296
1.99,0.731424,1.4126,3.53093,2.66369,4.21197,1.09355
2,0.73131,1.41499,3.52362,2.65703,4.20344,1.09408
2.01,0.731246,1.41741,3.51631,2.65037,4.19492,1.09463
2.02,0.731202,1.41978,3.509,2.64372,4.18645,1.09517
2.03,0.73116,1.42216,3.50169,2.63708,4.17798,1.0957
2.04,0.731171,1.42454,3.49438,2.6304,4.1695,1.09625
2.05,0.731139,1.42679,3.48707,2.62366,4.16104,1.09676
2.06,0.731024,1.42908,3.47976,2.6169,4.15262,1.09733
2.07,0.730917,1.43134,3.47245,2.61021,4.14421,1.09784
2.08,0.730841,1.43369,3.46515,2.60353,4.1358,1.0984
2.09,0.730772,1.43598,3.45784,2.59684,4.12739,1.09892
2.1,0.730665,1.43828,3.45053,2.59017,4.11903,1.09946
2.11,0.730553,1.44054,3.44323,2.58347,4.11068,1.1
2.12,0.730415,1.44278,3.43593,2.5768,4.10234,1.10051
2.13,0.730312,1.44505,3.42862,2.57008,4.094,1.10107
2.14,0.730199,1.44718,3.42133,2.56333,4.08569,1.10156
2.15,0.730047,1.44936,3.41402,2.55657,4.07741,1.10212
2.16,0.729894,1.45151,3.40673,2.54985,4.06914,1.10263
2.17,0.729794,1.4537,3.39943,2.54314,4.06087,1.10316
2.18,0.729648,1.45589,3.39214,2.53641,4.05259,1.10369
2.19,0.729556,1.45805,3.38484,2.52971,4.04432,1.10419
2.2,0.729416,1.46023,3.37755,2.52301,4.0361,1.10474
2.21,0.729226,1.46236,3.37026,2.51633,4.02788,1.10522
2.22,0.729181,1.46457,3.36297,2.50965,4.01967,1.10576
2.23,0.729005,1.46666,3.35568,2.50291,4.01146,1.10627
2.24,0.728787,1.46871,3.34839,2.4961,4.00325,1.10678
2.25,0.728585,1.47077,3.34111,2.48934,3.99509,1.1073
2.26,0.728393,1.47282,3.33382,2.48264,3.98693,1.10777
2.27,0.728189,1.47495,3.32654,2.47592,3.97877,1.10831
2.28,0.728022,1.477,3.31926,2.46922,3.97063,1.10879
2.29,0.727778,1.4791,3.31199,2.46252,3.9625,1.10931
2.3,0.727642,1.48115,3.30471,2.45582,3.95438,1.1098
2.31,0.727484,1.48316,3.29744,2.44912,3.94629,1.11028
2.32,0.727163,1.48517,3.29017,2.44238,3.93821,1.11078
2.33,0.727013,1.48708,3.2829,2.43561,3.93013,1.11124
2.34,0.726868,1.48911,3.27563,2.42886,3.92204,1.11175
2.35,0.72671,1.49106,3.26837,2.42213,3.91396,1.1122
2.36,0.726568,1.49311,3.2611,2.41541,3.90589,1.11272
2.37,0.726409,1.49504,3.25384,2.40869,3.89786,1.11319
2.38,0.726356,1.49703,3.24658,2.40198,3.88983,1.11368
2.39,0.726097,1.49899,3.23932,2.39526,3.88181,1.11416
2.4,0.725941,1.50098,3.23206,2.38858,3.87378,1.11463
2.41,0.72574,1.50296,3.2248,2.38186,3.86576,1.11512
2.42,0.72546,1.50484,3.21755,2.37508,3.85773,1.11557
2.43,0.725266,1.50672,3.21029,2.36828,3.84974,1.11608
2.44,0.72509,1.50857,3.20305,2.36154,3.84178,1.11652
2.45,0.724907,1.51049,3.1958,2.35482,3.83384,1.11702
2.46,0.724729,1.51237,3.18855,2.3481,3.82588,1.11748
2.47,0.724496,1.51428,3.18131,2.34138,3.81793,1.11795
2.48,0.724309,1.51619,3.17407,2.33466,3.80998,1.11843
2.49,0.724138,1.51806,3.16682,2.32794,3.80203,1.11887
2.5,0.723932,1.51998,3.15959,2.32121,3.79408,1.11936
2.51,0.723767,1.52172,3.15235,2.31444,3.78618,1.11979
2.52,0.7236,1.52354,3.14512,2.30764,3.77828,1.12028
2.53,0.723444,1.52532,3.13788,2.30088,3.77038,1.12073
2.54,0.723246,1.52716,3.13065,2.29414,3.76248,1.12119
2.55,0.723087,1.52897,3.12342,2.28739,3.75459,1.12165
2.56,0.722864,1.53078,3.11619,2.28066,3.74668,1.12208
2.57,0.722636,1.53264,3.10897,2.27393,3.73879,1.12256
2.58,0.722393,1.53442,3.10174,2.26722,3.73092,1.12297
2.59,0.722137,1.53626,3.09452,2.26052,3.72309,1.12345
2.6,0.721897,1.53799,3.08731,2.25377,3.71526,1.12387
2.61,0.721649,1.53967,3.08009,2.24697,3.70744,1.12432
2.62,0.721454,1.54141,3.07288,2.24021,3.69961,1.12477
2.63,0.721232,1.54316,3.06566,2.23349,3.69179,1.12519
2.64,0.721044,1.54497,3.05846,2.22678,3.68395,1.12564
2.65,0.720805,1.5467,3.05125,2.22007,3.67612,1.12604
2.66,0.720635,1.54853,3.04404,2.21336,3.6683,1.12651
2.67,0.72048,1.55023,3.03684,2.20664,3.66052,1.12692
2.68,0.720292,1.552,3.02964,2.19994,3.65274,1.12737
2.69,0.720113,1.55368,3.02244,2.19319,3.64496,1.12779
2.7,0.719967,1.55536,3.01524,2.18642,3.63718,1.12822
2.71,0.719816,1.55703,3.00804,2.17965,3.62941,1.12866
2.72,0.719589,1.55872,3.00085,2.17291,3.62163,1.12907
2.73,0.719375,1.56048,2.99365,2.16618,3.61385,1.12953
2.74,0.719135,1.56215,2.98646,2.15945,3.60607,1.12992
2.75,0.718885,1.5639,2.97927,2.15273,3.59833,1.13038
2.76,0.718642,1.56554,2.97209,2.14602,3.59061,1.13079
2.77,0.718456,1.56726,2.9649,2.13933,3.58291,1.13123
2.78,0.718253,1.56893,2.95772,2.13262,3.5752,1.13166
2.79,0.718122,1.57053,2.95054,2.12585,3.5675,1.13208
2.8,0.717933,1.57215,2.94337,2.11906,3.55979,1.13252
2.81,0.717735,1.57376,2.93619,2.11233,3.55208,1.13291
2.82,0.717546,1.57551,2.92901,2.10562,3.54436,1.13337
2.83,0.71736,1.57713,2.92184,2.0989,3.53665,1.13376
2.84,0.717162,1.57887,2.91467,2.09219,3.52894,1.13422
2.85,0.71699,1.5805,2.9075,2.08547,3.52126,1.13463
2.86,0.716793,1.58216,2.90034,2.07877,3.51358,1.13505
2.87,0.716398,1.58379,2.89317,2.07205,3.50592,1.13548
2.88,0.715969,1.58537,2.88601,2.0653,3.49825,1.13588
2.89,0.715752,1.58697,2.87885,2.05853,3.4906,1.13633
2.9,0.715528,1.58854,2.8717,2.05178,3.48293,1.13671
2.91,0.715219,1.59021,2.86455,2.04507,3.47528,1.13717
2.92,0.715024,1.59182,2.8574,2.03835,3.46762,1.13757
2.93,0.714785,1.59346,2.85025,2.03165,3.45998,1.138
2.94,0.714543,1.59512,2.84311,2.02495,3.45233,1.13842
2.95,0.71429,1.59675,2.83596,2.01827,3.44468,1.13881
2.96,0.714073,1.59845,2.82882,2.01162,3.43707,1.13925
2.97,0.713847,1.59998,2.82169,2.00492,3.42946,1.13962
2.98,0.713558,1.60159,2.81455,1.99816,3.42184,1.14007
2.99,0.713202,1.60311,2.80742,1.99142,3.41424,1.14047
3,0.712989,1.60475,2.80029,1.98475,3.40663,1.14089
3.01,0.712753,1.60637,2.79316,1.97808,3.39904,1.14129
3.02,0.712491,1.60797,2.78604,1.97141,3.39144,1.14168
3.03,0.712216,1.60962,2.77892,1.96476,3.38385,1.1421
3.04,0.712016,1.6112,2.7718,1.95809,3.37625,1.14247
3.05,0.711759,1.61289,2.76468,1.95145,3.36866,1.14291
3.06,0.711505,1.61445,2.75756,1.94477,3.36106,1.14327
3.07,0.71127,1.61606,2.75045,1.93806,3.35349,1.14371
3.08,0.711045,1.61754,2.74334,1.93134,3.34594,1.14409
3.09,0.710839,1.61912,2.73624,1.92466,3.33841,1.14451
3.1,0.710575,1.62069,2.72913,1.918,3.33087,1.14491
3.11,0.710232,1.62224,2.72203,1.91133,3.32333,1.1453
3.12,0.709957,1.62386,2.71493,1.90468,3.31579,1.14572
3.13,0.709729,1.62541,2.70783,1.89803,3.30826,1.1461
3.14,0.709505,1.62708,2.70074,1.89141,3.30072,1.14653
3.15,0.708237,1.62866,2.69365,1.88479,3.29318,1.1469
3.16,0.707681,1.63027,2.68657,1.87812,3.28567,1.14734
3.17,0.707197,1.63176,2.6795,1.87142,3.27815,1.14773
3.18,0.706729,1.63333,2.67243,1.86476,3.27065,1.14814
3.19,0.706276,1.63495,2.66537,1.85814,3.26314,1.14855
3.2,0.705751,1.63649,2.65831,1.85152,3.25567,1.14893
3.21,0.705288,1.63811,2.65126,1.84491,3.24819,1.14936
3.22,0.704864,1.63964,2.64421,1.83831,3.24072,1.14972
3.23,0.704435,1.64129,2.63716,1.83171,3.23324,1.15016
3.24,0.704014,1.64284,2.63013,1.82512,3.22579,1.15054
3.25,0.703633,1.64438,2.62309,1.81849,3.21835,1.15096
3.26,0.703236,1.64587,2.61606,1.81184,3.21092,1.15136
3.27,0.70289,1.64734,2.60902,1.80519,3.20349,1.15174
3.28,0.702469,1.64891,2.602,1.79858,3.19606,1.15216
3.29,0.702068,1.6504,2.59498,1.79198,3.18862,1.15251
3.3,0.701607,1.65201,2.58796,1.78538,3.18119,1.15295
3.31,0.70119,1.65357,2.58095,1.7788,3.17376,1.15333
3.32,0.700786,1.65517,2.57394,1.77223,3.16632,1.15373
3.33,0.700385,1.65678,2.56694,1.76569,3.15891,1.15413
3.34,0.699861,1.65833,2.55994,1.75915,3.15152,1.1545
3.35,0.69946,1.65987,2.55294,1.75255,3.14413,1.15492
3.36,0.699052,1.66129,2.54595,1.74593,3.13674,1.15528
3.37,0.698616,1.66288,2.53897,1.73936,3.12937,1.15571
3.38,0.698197,1.66445,2.53199,1.73283,3.12198,1.15609
3.39,0.697724,1.66604,2.52501,1.72629,3.11459,1.15648
3.4,0.697237,1.66764,2.51803,1.71977,3.1072,1.15687
3.41,0.696751,1.66916,2.51106,1.71325,3.09985,1.15723
3.42,0.696344,1.67076,2.5041,1.70673,3.09249,1.15764
3.43,0.695912,1.67226,2.49714,1.70023,3.08515,1.15797
3.44,0.69554,1.67385,2.49019,1.69369,3.0778,1.1584
3.45,0.69515,1.67531,2.48324,1.68712,3.07045,1.15875
3.46,0.694746,1.67686,2.47629,1.68057,3.0631,1.15915
3.47,0.694299,1.6784,2.46934,1.67405,3.05576,1.15953
3.48,0.693876,1.67999,2.4624,1.66755,3.0484,1.15991
3.49,0.693416,1.68157,2.45547,1.66104,3.04107,1.16031
3.5,0.692971,1.68309,2.44854,1.65455,3.03376,1.16067
3.51,0.692552,1.6847,2.44161,1.64806,3.02645,1.16109
3.52,0.692129,1.68624,2.43469,1.6416,3.01915,1.16144
3.53,0.691725,1.6879,2.42778,1.63515,3.01185,1.16186
3.54,0.691357,1.68942,2.42086,1.62865,3.00455,1.16224
3.55,0.690875,1.69093,2.41395,1.62211,2.99725,1.16263
3.56,0.690231,1.69249,2.40705,1.61562,2.98996,1.16303
3.57,0.689754,1.69407,2.40015,1.60916,2.98265,1.1634
3.58,0.689122,1.6957,2.39326,1.60271,2.97539,1.16382
3.59,0.688672,1.69722,2.38637,1.59626,2.96812,1.16417
3.6,0.688215,1.69887,2.37949,1.58983,2.96086,1.1646
3.61,0.687715,1.70044,2.37261,1.58339,2.9536,1.16498
3.62,0.687253,1.70206,2.36573,1.57698,2.94635,1.16537
3.63,0.686785,1.70366,2.35886,1.57053,2.93909,1.16578
3.64,0.686305,1.70517,2.352,1.56407,2.93183,1.16614
3.65,0.685635,1.70677,2.34514,1.55759,2.92457,1.16657
3.66,0.685142,1.70833,2.33829,1.55115,2.91731,1.16693
3.67,0.684641,1.70996,2.33144,1.54474,2.91009,1.16735
3.68,0.684143,1.71154,2.3246,1.53833,2.90287,1.16774
3.69,0.683421,1.71313,2.31776,1.53193,2.89566,1.16812
3.7,0.68295,1.71479,2.31094,1.52556,2.88844,1.16854
3.71,0.68247,1.71637,2.30411,1.5192,2.88124,1.16889
3.72,0.681919,1.71814,2.29729,1.51287,2.87403,1.16933
3.73,0.681346,1.71975,2.29047,1.50651,2.86683,1.1697
