time,velocity,ratio,centerX,Xmax,Xmin,Ymax
0,0,1,1.25,0.25,2.25,1
0.01,0.0164058,1.00004,1.24992,0.249967,2.2499,1.00001
0.02,0.0321185,1.00012,1.24968,0.249819,2.24963,1.00003
0.03,0.0471129,1.00027,1.24928,0.249566,2.24916,1.00007
0.04,0.0613346,1.00043,1.24874,0.249156,2.24854,1.00012
0.05,0.074599,1.00059,1.24806,0.248601,2.24777,1.00018
0.06,0.0870566,1.00077,1.24725,0.247916,2.24685,1.00023
0.07,0.0990958,1.00091,1.24632,0.247091,2.24581,1.00027
0.08,0.11041,1.00101,1.24528,0.246111,2.24468,1.0003
0.09,0.121506,1.00107,1.24412,0.245003,2.24348,1.0003
0.1,0.13204,1.00106,1.24285,0.243764,2.24222,1.00029
0.11,0.142565,1.00102,1.24148,0.242398,2.2409,1.00027
0.12,0.15274,1.00095,1.24,0.240915,2.23953,1.00025
0.13,0.162861,1.00086,1.23843,0.23928,2.23805,1.00025
0.14,0.172877,1.0008,1.23675,0.237552,2.23643,1.00024
0.15,0.181869,1.00077,1.23498,0.235754,2.23468,1.00023
0.16,0.191001,1.00079,1.23311,0.233908,2.23276,1.00022
0.17,0.199833,1.00083,1.23116,0.231958,2.23074,1.00021
0.18,0.208403,1.00087,1.22912,0.229951,2.22865,1.00022
0.19,0.216352,1.00091,1.227,0.227865,2.2265,1.00023
0.2,0.224299,1.001,1.22479,0.225733,2.22426,1.00026
0.21,0.23219,1.00107,1.22251,0.223545,2.22201,1.0003
0.22,0.239463,1.00116,1.22016,0.221264,2.21964,1.00035
0.23,0.246123,1.00127,1.21773,0.218929,2.21714,1.00038
0.24,0.252672,1.00136,1.21524,0.216508,2.21456,1.00038
0.25,0.258281,1.00143,1.21268,0.214035,2.21193,1.00038
0.26,0.264147,1.00149,1.21007,0.211469,2.20926,1.00039
0.27,0.270201,1.00151,1.2074,0.208811,2.2066,1.00041
0.28,0.275715,1.00149,1.20467,0.206056,2.20396,1.00044
0.29,0.281112,1.0015,1.20189,0.203296,2.2012,1.00045
0.3,0.286184,1.00151,1.19905,0.200495,2.19833,1.00042
0.31,0.290827,1.00151,1.19617,0.19769,2.19543,1.00038
0.32,0.295089,1.00155,1.19324,0.194809,2.19247,1.00038
0.33,0.299757,1.00154,1.19027,0.19182,2.18956,1.00041
0.34,0.304128,1.00153,1.18725,0.188742,2.18659,1.00045
0.35,0.308177,1.00159,1.18419,0.185707,2.18345,1.00047
0.36,0.311603,1.00166,1.18109,0.182701,2.18027,1.00045
0.37,0.315128,1.00178,1.17795,0.179706,2.17704,1.00044
0.38,0.318582,1.00187,1.17479,0.176648,2.17387,1.00048
0.39,0.32138,1.00191,1.17159,0.17347,2.17073,1.00054
0.4,0.32403,1.00197,1.16836,0.170266,2.16748,1.00057
0.41,0.326417,1.00203,1.16511,0.167077,2.16416,1.00056
0.42,0.328814,1.00214,1.16183,0.16394,2.16078,1.00056
0.43,0.330832,1.00222,1.15854,0.16074,2.15746,1.00057
0.44,0.332678,1.00224,1.15522,0.157423,2.15417,1.00061
0.45,0.334302,1.00224,1.15189,0.15407,2.15083,1.00062
0.46,0.335346,1.00224,1.14854,0.150739,2.14749,1.00061
0.47,0.336899,1.00232,1.14518,0.147492,2.14409,1.00061
0.48,0.338138,1.00237,1.1418,0.144222,2.14074,1.00062
0.49,0.338971,1.00241,1.13842,0.140877,2.13734,1.00064
0.5,0.339566,1.00243,1.13502,0.137484,2.1339,1.00064
0.51,0.340061,1.00248,1.13163,0.134146,2.1305,1.00065
0.52,0.340399,1.00256,1.12822,0.13084,2.12708,1.00068
0.53,0.340793,1.00263,1.12482,0.127516,2.12366,1.0007
0.54,0.340628,1.00272,1.12141,0.124179,2.12017,1.00071
0.55,0.340247,1.00277,1.11801,0.12083,2.11672,1.00071
0.56,0.339936,1.00287,1.11461,0.117556,2.11331,1.00074
0.57,0.339252,1.00296,1.11121,0.114297,2.10994,1.00077
0.58,0.338232,1.00304,1.10782,0.110991,2.10653,1.0008
0.59,0.336951,1.00312,1.10445,0.107677,2.10307,1.00081
0.6,0.335298,1.00319,1.10109,0.104404,2.09965,1.00081
0.61,0.333791,1.00329,1.09774,0.101185,2.09629,1.00084
0.62,0.332124,1.00337,1.09441,0.0979593,2.09298,1.00087
0.63,0.33004,1.00345,1.0911,0.0947231,2.08961,1.00089
0.64,0.327539,1.0035,1.08782,0.0914886,2.08627,1.00089
0.65,0.324945,1.00359,1.08456,0.0883542,2.08299,1.0009
0.66,0.322565,1.00369,1.08132,0.0852585,2.07976,1.00093
0.67,0.319773,1.00378,1.07811,0.0821625,2.07654,1.00096
0.68,0.31648,1.00387,1.07493,0.0790761,2.0733,1.00097
0.69,0.312984,1.00393,1.07178,0.0760126,2.0701,1.00097
0.7,0.309359,1.00405,1.06867,0.0730586,2.06696,1.00099
0.71,0.305844,1.00416,1.06559,0.07013,2.06389,1.00103
0.72,0.302013,1.00427,1.06255,0.0672181,2.06082,1.00106
0.73,0.29781,1.00438,1.05956,0.06434,2.05775,1.00108
0.74,0.293326,1.00447,1.0566,0.0615006,2.05474,1.00108
0.75,0.288618,1.0046,1.05369,0.0587687,2.0518,1.0011
0.76,0.284261,1.00473,1.05083,0.0560622,2.04892,1.00114
0.77,0.279546,1.00484,1.04801,0.0533968,2.04609,1.00117
0.78,0.274463,1.00496,1.04524,0.0507751,2.04327,1.00119
0.79,0.269143,1.00505,1.04252,0.0481878,2.04051,1.00119
0.8,0.263404,1.00516,1.03986,0.045697,2.03781,1.00119
0.81,0.257836,1.00531,1.03725,0.0432898,2.03516,1.00122
0.82,0.252309,1.00543,1.0347,0.0409158,2.03262,1.00126
0.83,0.246533,1.00556,1.03221,0.0386144,2.03011,1.00129
0.84,0.240326,1.00572,1.02978,0.0363971,2.02761,1.0013
0.85,0.23381,1.00586,1.02741,0.0342408,2.02519,1.00131
0.86,0.226951,1.00602,1.0251,0.0321968,2.02285,1.00131
0.87,0.219996,1.00623,1.02287,0.0302537,2.02056,1.00135
0.88,0.213335,1.00641,1.0207,0.0283317,2.01837,1.0014
0.89,0.206454,1.00658,1.0186,0.0264939,2.01626,1.00143
0.9,0.199237,1.00678,1.01657,0.02474,2.01417,1.00146
0.91,0.191594,1.00699,1.01462,0.0230861,2.01214,1.00148
0.92,0.183729,1.0072,1.01274,0.0215473,2.01023,1.0015
0.93,0.175607,1.00738,1.01095,0.0200312,2.00838,1.00152
0.94,0.167263,1.00759,1.00923,0.018638,2.00661,1.00153
0.95,0.159017,1.00782,1.0076,0.0173482,2.00492,1.00156
0.96,0.151095,1.008,1.00605,0.0160759,2.00337,1.0016
0.97,0.143208,1.0082,1.00458,0.0149514,2.00191,1.00162
0.98,0.134961,1.00838,1.00319,0.0138747,2.00051,1.00164
0.99,0.126665,1.00859,1.00188,0.0128659,1.99911,1.00165
1,0.118147,1.00875,1.00066,0.0119579,1.99787,1.00165
1.01,0.109564,1.00891,0.999518,0.0110823,1.99673,1.00167
1.02,0.100974,1.00906,0.998465,0.0102536,1.99565,1.00169
1.03,0.0925906,1.00918,0.997498,0.00948606,1.99466,1.0017
1.04,0.0843921,1.00927,0.996613,0.00873103,1.99374,1.0017
1.05,0.0763827,1.00932,0.995809,0.00801678,1.99291,1.0017
1.06,0.0686034,1.00934,0.995084,0.00734771,1.99219,1.00169
1.07,0.0611519,1.00934,0.994436,0.00671565,1.99155,1.00169
1.08,0.0540564,1.00931,0.99386,0.00612209,1.99101,1.00168
1.09,0.0473319,1.00922,0.993353,0.00554032,1.99055,1.00166
1.1,0.041108,1.00913,0.992911,0.00497828,1.99013,1.00163
1.11,0.0354396,1.009,0.992528,0.00444511,1.98979,1.0016
1.12,0.0304151,1.00883,0.992199,0.00393939,1.98954,1.00157
1.13,0.0260071,1.0069,0.991917,-0,1.98932,1.00153
1.14,0.0222311,1.00695,0.991676,4.78299e-09,1.98916,1.00149
1.15,0.0189837,1.00697,0.99147,5.02634e-09,1.98902,1.00144
1.16,0.0162936,1.00698,0.991294,-0,1.98892,1.0014
1.17,0.0140715,1.00699,0.991142,4.31375e-09,1.98883,1.00136
1.18,0.0122691,1.00699,0.99101,3.79157e-09,1.98877,1.00133
1.19,0.0108764,1.007,0.990894,4.91006e-09,1.98869,1.0013
1.2,0.00980889,1.00701,0.99079,-0,1.98862,1.00128
1.21,0.00903357,1.00703,0.990696,4.35992e-09,1.98855,1.00127
1.22,0.00846166,1.00706,0.990608,4.23284e-09,1.98848,1.00126
1.23,0.00808644,1.0071,0.990525,4.06528e-09,1.9884,1.00126
1.24,0.00784486,1.00713,0.990445,3.99597e-09,1.98832,1.00125
1.25,0.00766298,1.00717,0.990367,3.88623e-09,1.98825,1.00125
1.26,0.00756103,1.00721,0.99029,3.7875e-09,1.98817,1.00125
1.27,0.0074754,1.00725,0.990214,-0,1.9881,1.00125
1.28,0.0073925,1.00729,0.99014,4.67437e-09,1.98802,1.00125
1.29,0.00729479,1.00732,0.990066,4.57407e-09,1.98796,1.00125
1.3,0.00715764,1.00737,0.989993,4.4533e-09,1.98787,1.00126
1.31,0.0070185,1.00741,0.989922,4.36366e-09,1.9878,1.00126
1.32,0.00687392,1.00744,0.989853,4.30488e-09,1.98773,1.00127
1.33,0.00668316,1.00749,0.989785,4.26988e-09,1.98766,1.00127
1.34,0.00646509,1.00753,0.989719,-0,1.98758,1.00128
1.35,0.00621559,1.00757,0.989655,4.23613e-09,1.98751,1.00128
1.36,0.00593678,1.00761,0.989594,4.20415e-09,1.98745,1.00129
1.37,0.00563499,1.00766,0.989536,4.15705e-09,1.98738,1.0013
1.38,0.00531124,1.00769,0.989481,4.09668e-09,1.98731,1.0013
1.39,0.00495933,1.00773,0.98943,4.02378e-09,1.98725,1.0013
1.4,0.0045811,1.00776,0.989382,3.94294e-09,1.9872,1.0013
1.41,0.00418862,1.00778,0.989338,3.86609e-09,1.98715,1.00131
1.42,0.0037837,1.00908,0.989298,0.00252935,1.98712,1.00131
1.43,0.00335696,1.00887,0.989262,0.00207532,1.98709,1.00131
1.44,0.00290314,1.00868,0.98923,0.00167845,1.98706,1.0013
1.45,0.00243294,1.00852,0.989203,0.00133722,1.98703,1.0013
1.46,0.00196195,1.00838,0.989181,0.00104305,1.98701,1.0013
1.47,0.0014964,1.00826,0.989164,0.000786099,1.98699,1.0013
1.48,0.00103897,1.00815,0.989151,0.000561245,1.98698,1.0013
1.49,0.000594705,1.00806,0.989143,0.000371478,1.98696,1.0013
1.5,0.00016531,1.00798,0.989139,0.000207985,1.98696,1.0013
1.51,-0.000248505,1.00791,0.989139,6.8181e-05,1.98696,1.0013
1.52,-0.000643922,1.00787,0.989143,-0,1.98697,1.0013
1.53,-0.00101647,1.00786,0.989151,-0,1.98698,1.0013
1.54,-0.00136818,1.00784,0.989163,-0,1.987,1.00129
1.55,-0.00170455,1.00943,0.989178,0.00315234,1.98702,1.00129
1.56,-0.00199823,1.00941,0.989196,0.0031546,1.98705,1.00128
1.57,-0.00225059,1.0094,0.989217,0.00315694,1.98708,1.00128
1.58,-0.0024777,1.00938,0.989241,0.00315944,1.98711,1.00127
1.59,-0.00266117,1.00936,0.989266,0.00316206,1.98714,1.00127
1.6,-0.00280953,1.00934,0.989293,0.00316461,1.98717,1.00127
1.61,-0.00292488,1.00932,0.989322,0.003167,1.98721,1.00126
1.62,-0.00300925,1.00929,0.989351,0.00316906,1.98724,1.00126
1.63,-0.00306553,1.00927,0.989381,0.00317077,1.98728,1.00125
1.64,-0.00309686,1.00925,0.989412,0.00317205,1.98731,1.00125
1.65,-0.00310272,1.00923,0.989442,0.00317307,1.98735,1.00125
1.66,-0.00308446,1.00921,0.989473,0.00317564,1.98738,1.00124
1.67,-0.00304321,1.00758,0.989503,-0,1.98742,1.00124
1.68,-0.00298084,1.00756,0.989533,-0,1.98745,1.00124
1.69,-0.00289922,1.00754,0.989562,-0,1.98749,1.00123
1.7,-0.00279846,1.00752,0.989591,-0,1.98752,1.00123
1.71,-0.00268047,1.00751,0.989618,1.79181e-05,1.98755,1.00123
1.72,-0.00254748,1.00754,0.989644,0.000117899,1.98758,1.00123
1.73,-0.00240177,1.00758,0.989668,0.000230226,1.98761,1.00122
1.74,-0.00224598,1.00763,0.989691,0.00034692,1.98764,1.00122
1.75,-0.00208328,1.00767,0.989713,0.000459712,1.98766,1.00122
1.76,-0.00191797,1.00771,0.989733,0.00057054,1.98768,1.00122
1.77,-0.00174975,1.00776,0.989751,0.000680629,1.9877,1.00122
1.78,-0.00158208,1.0078,0.989767,0.000790363,1.98772,1.00122
1.79,-0.00141696,1.00785,0.989782,0.000899188,1.98774,1.00122
1.8,-0.00125579,1.0079,0.989795,0.00100668,1.98775,1.00122
1.81,-0.00109962,1.00795,0.989807,0.00111241,1.98776,1.00122
1.82,-0.000949949,1.00799,0.989817,0.00121554,1.98777,1.00122
1.83,-0.000808122,1.00804,0.989826,0.00131563,1.98778,1.00122
1.84,-0.000673409,1.00809,0.989833,0.00141264,1.98779,1.00122
1.85,-0.000552688,1.00813,0.989839,0.00150627,1.98779,1.00122
1.86,-0.000445895,1.00818,0.989844,0.00159604,1.9878,1.00122
1.87,-0.000347816,1.00853,0.989848,0.00230536,1.9878,1.00122
1.88,-0.000252383,1.00865,0.989851,0.00253929,1.9878,1.00122
1.89,-0.000157803,1.00872,0.989853,0.00267003,1.98781,1.00122
1.9,-7.33117e-05,1.00876,0.989854,0.00276056,1.98781,1.00122
1.91,-3.66654e-06,1.0088,0.989854,0.00282892,1.98781,1.00122
1.92,5.11819e-05,1.00883,0.989854,0.0028824,1.98781,1.00122
