time,velocity,ratio,centerX,Xmax,Xmin,Ymax
0,0,1,1.5,0.5,2.5,1
0.01,0.0175817,1.00001,1.49991,0.499925,2.49991,1
0.02,0.0345965,1.00006,1.49965,0.49972,2.49963,1.00001
0.03,0.051004,1.00016,1.49923,0.499382,2.49915,1.00004
0.04,0.0668342,1.00025,1.49864,0.498877,2.49851,1.00007
0.05,0.0819104,1.00035,1.49789,0.4982,2.49772,1.0001
0.06,0.0964881,1.00045,1.497,0.497381,2.49676,1.00014
0.07,0.110558,1.00056,1.49597,0.496418,2.49565,1.00017
0.08,0.124185,1.00064,1.4948,0.495306,2.4944,1.00019
0.09,0.137418,1.0007,1.49349,0.494047,2.49304,1.0002
0.1,0.150393,1.00074,1.49205,0.492647,2.49157,1.0002
0.11,0.163106,1.00076,1.49049,0.491107,2.48999,1.00021
0.12,0.175518,1.00072,1.48879,0.4894,2.48837,1.00021
0.13,0.187809,1.00067,1.48698,0.487535,2.48663,1.00022
0.14,0.199572,1.00064,1.48504,0.485574,2.48474,1.00022
0.15,0.210926,1.00061,1.48299,0.483512,2.48271,1.00021
0.16,0.222039,1.0006,1.48083,0.481365,2.48052,1.00018
0.17,0.232685,1.0006,1.47856,0.479131,2.47822,1.00014
0.18,0.243249,1.00061,1.47618,0.476753,2.47582,1.00014
0.19,0.253327,1.00062,1.47369,0.474261,2.47332,1.00015
0.2,0.262975,1.0006,1.47111,0.47166,2.47081,1.00018
0.21,0.272578,1.00064,1.46844,0.468987,2.46815,1.00022
0.22,0.281833,1.00074,1.46566,0.46629,2.46531,1.00024
0.23,0.290957,1.00083,1.4628,0.463511,2.46234,1.00024
0.24,0.299418,1.00094,1.45985,0.460686,2.45929,1.00024
0.25,0.307852,1.00107,1.45682,0.457774,2.45617,1.00027
0.26,0.316078,1.00111,1.4537,0.454676,2.45309,1.00032
0.27,0.323845,1.00115,1.4505,0.45147,2.44991,1.00037
0.28,0.331359,1.00119,1.44722,0.448202,2.44657,1.00038
0.29,0.338738,1.00123,1.44387,0.444883,2.44317,1.00038
0.3,0.346153,1.0013,1.44045,0.441558,2.43969,1.00037
0.31,0.353257,1.0013,1.43695,0.438098,2.43624,1.00037
0.32,0.359898,1.0013,1.43339,0.434525,2.43268,1.00037
0.33,0.366162,1.00126,1.42976,0.430861,2.42905,1.00036
0.34,0.372562,1.00125,1.42606,0.427131,2.42539,1.00038
0.35,0.378995,1.00125,1.42231,0.423427,2.42168,1.00037
0.36,0.38498,1.00126,1.41849,0.419637,2.41788,1.00038
0.37,0.390798,1.00129,1.41461,0.415779,2.41392,1.00036
0.38,0.396396,1.00134,1.41068,0.411851,2.40993,1.00037
0.39,0.401903,1.00137,1.40668,0.407897,2.40595,1.00039
0.4,0.407262,1.00141,1.40264,0.403903,2.40193,1.00042
0.41,0.412071,1.00146,1.39854,0.399853,2.39777,1.00042
0.42,0.417211,1.00155,1.3944,0.395746,2.39356,1.00046
0.43,0.421019,1.00161,1.39021,0.391617,2.38935,1.00047
0.44,0.425517,1.00168,1.38598,0.387471,2.38509,1.00049
0.45,0.429822,1.00176,1.3817,0.383272,2.38076,1.0005
0.46,0.433854,1.00181,1.37738,0.378969,2.3764,1.00053
0.47,0.438084,1.0018,1.37302,0.374601,2.37208,1.00054
0.48,0.441982,1.00184,1.36862,0.37025,2.36765,1.00054
0.49,0.44559,1.00189,1.36419,0.365845,2.36318,1.00056
0.5,0.449406,1.0019,1.35971,0.361397,2.35871,1.00056
0.51,0.452962,1.00188,1.3552,0.356893,2.35424,1.00055
0.52,0.456218,1.00192,1.35065,0.352372,2.34963,1.00055
0.53,0.459424,1.00197,1.34608,0.347813,2.34502,1.00057
0.54,0.462603,1.00193,1.34147,0.343213,2.3405,1.00057
0.55,0.465371,1.00195,1.33683,0.338617,2.33584,1.00056
0.56,0.468118,1.00205,1.33216,0.33401,2.3311,1.00059
0.57,0.470829,1.00209,1.32747,0.329368,2.3264,1.0006
0.58,0.472974,1.00211,1.32275,0.32469,2.32168,1.00061
0.59,0.475242,1.00221,1.31801,0.320017,2.31687,1.00063
0.6,0.477352,1.0023,1.31325,0.315317,2.31205,1.00066
0.61,0.479323,1.00231,1.30846,0.310567,2.30731,1.00068
0.62,0.481004,1.00239,1.30366,0.305833,2.30243,1.00069
0.63,0.482664,1.0025,1.29885,0.301088,2.29754,1.00072
0.64,0.484204,1.00253,1.29401,0.296323,2.29274,1.00073
0.65,0.485297,1.00258,1.28917,0.291535,2.28785,1.00073
0.66,0.486591,1.00268,1.28431,0.286732,2.28293,1.00077
0.67,0.487695,1.00271,1.27944,0.281911,2.27807,1.00078
0.68,0.488554,1.00273,1.27455,0.277078,2.27319,1.00078
0.69,0.48943,1.00281,1.26967,0.272251,2.26825,1.0008
0.7,0.490112,1.00286,1.26477,0.26741,2.26334,1.00082
0.71,0.49041,1.00287,1.25987,0.262562,2.25845,1.00081
0.72,0.490748,1.00294,1.25496,0.257704,2.25349,1.00083
0.73,0.491197,1.00299,1.25005,0.252837,2.24856,1.00085
0.74,0.49119,1.003,1.24514,0.247969,2.24369,1.00085
0.75,0.491012,1.00307,1.24023,0.243116,2.23873,1.00087
0.76,0.491039,1.00314,1.23532,0.238266,2.23377,1.00089
0.77,0.490783,1.00317,1.23041,0.233419,2.2289,1.0009
0.78,0.490407,1.00324,1.22551,0.228577,2.22392,1.0009
0.79,0.489839,1.00333,1.22061,0.223738,2.21895,1.00093
0.8,0.48914,1.00336,1.21571,0.218906,2.2141,1.00095
0.81,0.488249,1.00342,1.21083,0.214101,2.20917,1.00095
0.82,0.487231,1.00354,1.20595,0.209309,2.20423,1.00099
0.83,0.486155,1.00358,1.20108,0.204508,2.19938,1.001
0.84,0.484874,1.00364,1.19623,0.199745,2.19449,1.001
0.85,0.483449,1.00375,1.19139,0.194984,2.18958,1.00104
0.86,0.481788,1.00381,1.18656,0.19023,2.18474,1.00106
0.87,0.480061,1.00386,1.18175,0.18551,2.17993,1.00106
0.88,0.478083,1.00397,1.17696,0.180797,2.17508,1.00109
0.89,0.476106,1.00405,1.17219,0.176115,2.17028,1.00112
0.9,0.473835,1.0041,1.16744,0.171467,2.16554,1.00112
0.91,0.471318,1.0042,1.16272,0.166831,2.16075,1.00114
0.92,0.468964,1.00431,1.15801,0.162234,2.15598,1.00117
0.93,0.466337,1.00436,1.15334,0.157657,2.15134,1.00119
0.94,0.463543,1.00445,1.14869,0.153123,2.14664,1.00119
0.95,0.460623,1.00458,1.14407,0.148602,2.14195,1.00124
0.96,0.457564,1.00464,1.13948,0.144117,2.13737,1.00125
0.97,0.454237,1.00473,1.13492,0.139685,2.13277,1.00126
0.98,0.450691,1.00485,1.1304,0.135269,2.12818,1.00129
0.99,0.447149,1.00496,1.12591,0.130909,2.12367,1.00132
1,0.443362,1.00504,1.12145,0.126592,2.11922,1.00133
1.01,0.439242,1.00516,1.11704,0.122315,2.11474,1.00135
1.02,0.435118,1.0053,1.11267,0.11808,2.1103,1.00139
1.03,0.430703,1.00539,1.10834,0.113896,2.10599,1.00142
1.04,0.425972,1.00552,1.10406,0.109787,2.10165,1.00143
1.05,0.421107,1.00568,1.09982,0.105695,2.09733,1.00147
1.06,0.416206,1.00583,1.09564,0.101668,2.09309,1.00151
1.07,0.410829,1.00595,1.0915,0.0977065,2.08894,1.00154
1.08,0.405203,1.0061,1.08742,0.0938256,2.08478,1.00155
1.09,0.399565,1.00628,1.0834,0.0899838,2.08069,1.0016
1.1,0.393755,1.00642,1.07943,0.0861984,2.07669,1.00164
1.11,0.387631,1.00656,1.07553,0.0824955,2.07276,1.00166
1.12,0.381128,1.00673,1.07168,0.0788794,2.06885,1.00168
1.13,0.374677,1.00692,1.0679,0.075309,2.065,1.00173
1.14,0.368093,1.00707,1.06419,0.071788,2.06125,1.00176
1.15,0.361134,1.00722,1.06055,0.0683617,2.05758,1.00179
1.16,0.353886,1.0074,1.05697,0.0650374,2.05393,1.0018
1.17,0.346482,1.0076,1.05347,0.061747,2.05035,1.00185
1.18,0.339138,1.00777,1.05004,0.0585375,2.04688,1.00189
1.19,0.331587,1.00794,1.04669,0.0554359,2.04351,1.00193
1.2,0.323645,1.00814,1.04341,0.0524383,2.04016,1.00195
1.21,0.315453,1.00834,1.04022,0.04951,2.03689,1.00198
1.22,0.307248,1.00855,1.0371,0.0466462,2.0337,1.00202
1.23,0.299036,1.00874,1.03407,0.0438983,2.03065,1.00206
1.24,0.290689,1.00895,1.03112,0.0412672,2.02767,1.0021
1.25,0.281895,1.00919,1.02826,0.0387594,2.02474,1.00212
1.26,0.27283,1.00943,1.02549,0.0363404,2.02189,1.00213
1.27,0.263643,1.00968,1.0228,0.0339943,2.01914,1.00218
1.28,0.254537,1.00994,1.02021,0.0317954,2.01651,1.00222
1.29,0.245415,1.0102,1.01771,0.0297111,2.01399,1.00226
1.3,0.236059,1.01047,1.01531,0.0277044,2.01152,1.00229
1.31,0.226307,1.01074,1.01299,0.0258273,2.00913,1.00231
1.32,0.216408,1.01102,1.01078,0.0240527,2.00685,1.00233
1.33,0.206314,1.01132,1.00867,0.0223598,2.00468,1.00238
1.34,0.196273,1.01161,1.00665,0.0207674,2.00262,1.00243
1.35,0.186334,1.0119,1.00474,0.0193029,2.00068,1.00248
1.36,0.176548,1.01223,1.00293,0.017986,1.99878,1.00251
1.37,0.166756,1.01252,1.00121,0.0166972,1.99698,1.00253
1.38,0.156811,1.01279,0.999592,0.015546,1.9953,1.00254
1.39,0.14667,1.01306,0.998075,0.0144882,1.99375,1.00256
1.4,0.136496,1.01332,0.996659,0.013523,1.99233,1.00258
1.41,0.126419,1.01354,0.995344,0.0125932,1.991,1.0026
1.42,0.116359,1.01376,0.99413,0.0117333,1.98977,1.00263
1.43,0.10645,1.01395,0.993016,0.0109461,1.98863,1.00264
1.44,0.096851,1.01412,0.991999,0.0101691,1.98756,1.00265
1.45,0.0874561,1.01424,0.991077,0.00943772,1.98662,1.00266
1.46,0.0783642,1.01431,0.990248,0.00874755,1.98577,1.00266
1.47,0.0696345,1.01435,0.989508,0.00811034,1.98505,1.00265
1.48,0.0612808,1.01436,0.988853,0.0075035,1.9844,1.00264
1.49,0.0533565,1.0143,0.98828,0.00690871,1.98386,1.00262
1.5,0.0459644,1.0142,0.987783,0.00634528,1.98344,1.00258
1.51,0.0390623,1.01406,0.987358,0.00579514,1.98307,1.00254
1.52,0.0326311,1.01389,0.986999,0.00527361,1.98279,1.00249
1.53,0.0266539,1.01368,0.986702,0.00476556,1.98259,1.00244
1.54,0.0211825,1.01345,0.986463,0.004288,1.98244,1.00238
1.55,0.0162636,1.01169,0.986276,0.000850199,1.98235,1.00233
1.56,0.0118336,1.01123,0.986135,4.24127e-07,1.9823,1.00228
1.57,0.00800037,1.01118,0.986035,-0,1.9823,1.00223
1.58,0.00473317,1.01112,0.985971,3.77047e-09,1.98232,1.00218
1.59,0.00199539,1.01106,0.985938,-0,1.98235,1.00213
1.6,-0.000226119,1.01098,0.985929,5.4336e-09,1.9824,1.00208
1.61,-0.00201482,1.01088,0.985939,4.8896e-09,1.98248,1.00203
1.62,-0.00333969,1.01078,0.985966,5.07375e-09,1.98258,1.00198
1.63,-0.00431406,1.01066,0.986004,5.06112e-09,1.98272,1.00193
1.64,-0.00492084,1.01055,0.98605,5.14606e-09,1.98286,1.00189
1.65,-0.00521661,1.01044,0.986101,5.20112e-09,1.98299,1.00185
1.66,-0.00523704,1.01034,0.986153,5.23879e-09,1.98311,1.00181
1.67,-0.00501727,1.01025,0.986204,5.28254e-09,1.98321,1.00177
1.68,-0.00459943,1.01017,0.986252,5.35023e-09,1.9833,1.00174
1.69,-0.00401552,1.01011,0.986294,-0,1.98337,1.00171
1.7,-0.00329483,1.01006,0.986331,5.42363e-09,1.98343,1.00169
1.71,-0.00248455,1.01002,0.986359,5.4863e-09,1.98349,1.00168
1.72,-0.00160481,1.00999,0.986379,5.53168e-09,1.98353,1.00167
1.73,-0.000699002,1.00997,0.986391,-0,1.98356,1.00166
1.74,0.000195112,1.00996,0.986393,5.57325e-09,1.98356,1.00166
