time,velocity,ratio,centerX,Xmax,Xmin,Ymax
0,0,1,4.75,3.75,5.75,1
0.01,0.0200449,1,4.7499,3.7499,5.7499,1
0.02,0.0401014,1.00001,4.7496,3.74961,5.74959,1
0.03,0.0601076,1.00002,4.7491,3.74911,5.74908,1.00001
0.04,0.080063,1.00004,4.74841,3.74842,5.74835,1.00001
0.05,0.0999514,1.00007,4.74751,3.74754,5.74743,1.00001
0.06,0.119785,1.00011,4.74641,3.74647,5.74629,1.00002
0.07,0.139559,1.00017,4.74512,3.74521,5.74494,1.00003
0.08,0.159274,1.00022,4.74362,3.74374,5.74339,1.00004
0.09,0.178944,1.00029,4.74194,3.74209,5.74164,1.00006
0.1,0.198579,1.00037,4.74005,3.74025,5.73969,1.0001
0.11,0.218164,1.00049,4.73797,3.73824,5.73753,1.00013
0.12,0.237698,1.00061,4.73569,3.73604,5.73516,1.00017
0.13,0.257106,1.00071,4.73322,3.73365,5.73263,1.0002
0.14,0.276465,1.00081,4.73055,3.73105,5.72992,1.00024
0.15,0.295749,1.00093,4.72769,3.72826,5.72699,1.00029
0.16,0.315235,1.00111,4.72464,3.72531,5.72384,1.00037
0.17,0.334456,1.00134,4.7214,3.72219,5.72041,1.00045
0.18,0.353873,1.0016,4.71796,3.71891,5.71677,1.00052
0.19,0.373243,1.00186,4.71432,3.71545,5.7129,1.00058
0.2,0.392459,1.00211,4.71049,3.7118,5.70889,1.00065
0.21,0.411534,1.0024,4.70648,3.70794,5.7047,1.00078
0.22,0.430298,1.00271,4.70227,3.70391,5.70027,1.00089
0.23,0.449233,1.00303,4.69787,3.69968,5.69561,1.00099
0.24,0.468467,1.00339,4.69328,3.69538,5.69078,1.00108
0.25,0.486997,1.00379,4.68851,3.69088,5.68576,1.00122
0.26,0.505619,1.00421,4.68355,3.68619,5.68051,1.00135
0.27,0.52403,1.00467,4.6784,3.68135,5.675,1.00148
0.28,0.543208,1.00511,4.67307,3.6763,5.66943,1.00166
0.29,0.561345,1.00552,4.66754,3.671,5.66365,1.00182
0.3,0.579995,1.00599,4.66184,3.66553,5.65756,1.00198
0.31,0.598208,1.00653,4.65595,3.66002,5.65132,1.00215
0.32,0.616247,1.00702,4.64988,3.6543,5.64493,1.00231
0.33,0.634123,1.00754,4.64363,3.64832,5.63831,1.0025
0.34,0.652637,1.00801,4.6372,3.64221,5.6316,1.00266
0.35,0.670326,1.00854,4.63059,3.63595,5.62464,1.00284
0.36,0.687868,1.00911,4.6238,3.62949,5.61746,1.00304
0.37,0.705186,1.00956,4.61684,3.62284,5.61022,1.00319
0.38,0.722519,1.01017,4.6097,3.6161,5.60266,1.00339
0.39,0.73969,1.0107,4.60239,3.60926,5.59506,1.00353
0.4,0.756822,1.01122,4.59491,3.60208,5.58727,1.00373
0.41,0.773807,1.0117,4.58726,3.5948,5.57933,1.00388
0.42,0.790683,1.01226,4.57944,3.58734,5.57116,1.00407
0.43,0.807606,1.01269,4.57145,3.57964,5.56289,1.0042
0.44,0.824498,1.01322,4.56329,3.57182,5.55438,1.00439
0.45,0.841242,1.01365,4.55496,3.56375,5.54574,1.00452
0.46,0.857912,1.01422,4.54647,3.55567,5.53691,1.0047
0.47,0.874613,1.01464,4.53781,3.5473,5.52799,1.00485
0.48,0.89127,1.01513,4.52898,3.53877,5.51889,1.00504
0.49,0.907861,1.01559,4.51999,3.53009,5.50959,1.00518
0.5,0.924253,1.01606,4.51083,3.52118,5.50009,1.00534
0.51,0.940558,1.01657,4.5015,3.51226,5.49048,1.0055
0.52,0.956737,1.01698,4.49202,3.50302,5.48068,1.00563
0.53,0.972867,1.01749,4.48237,3.49372,5.47076,1.00581
0.54,0.988999,1.01796,4.47256,3.48423,5.46064,1.00595
0.55,1.00497,1.01847,4.4626,3.47457,5.45034,1.00613
0.56,1.02094,1.01898,4.45247,3.46475,5.43988,1.0063
0.57,1.03681,1.01949,4.44218,3.45473,5.42918,1.00646
0.58,1.05247,1.02005,4.43173,3.44469,5.41836,1.00662
0.59,1.06826,1.02051,4.42113,3.43435,5.40749,1.00681
0.6,1.08398,1.02115,4.41037,3.42402,5.39628,1.00699
0.61,1.09957,1.02164,4.39946,3.41339,5.38506,1.00717
0.62,1.11504,1.02224,4.38838,3.40272,5.37366,1.00738
0.63,1.13035,1.02288,4.37716,3.39184,5.36193,1.00758
0.64,1.14584,1.02344,4.36578,3.38083,5.35021,1.00776
0.65,1.16105,1.02414,4.35425,3.36978,5.33823,1.00799
0.66,1.17603,1.02483,4.34256,3.35852,5.3261,1.00822
0.67,1.19095,1.02549,4.33073,3.34709,5.31384,1.00845
0.68,1.20582,1.0262,4.31875,3.33556,5.30139,1.00867
0.69,1.22051,1.02688,4.30662,3.32384,5.28883,1.00891
0.7,1.23517,1.02762,4.29434,3.31194,5.27602,1.00916
0.71,1.2496,1.02842,4.28192,3.30004,5.26308,1.00941
0.72,1.26412,1.02924,4.26935,3.28803,5.24996,1.00965
0.73,1.27862,1.02995,4.25664,3.27573,5.23678,1.00989
0.74,1.29284,1.03075,4.24378,3.26333,5.22341,1.01018
0.75,1.30699,1.03166,4.23078,3.25088,5.2098,1.01047
0.76,1.32128,1.03249,4.21764,3.23827,5.19614,1.01074
0.77,1.3353,1.0333,4.20436,3.22545,5.1823,1.01101
0.78,1.34939,1.03411,4.19094,3.21257,5.1684,1.01128
0.79,1.36325,1.03493,4.17738,3.19957,5.15437,1.01154
0.8,1.37707,1.03582,4.16368,3.18643,5.14009,1.01181
0.81,1.3908,1.0367,4.14984,3.17315,5.12571,1.01211
0.82,1.4041,1.03755,4.13587,3.15968,5.11121,1.0124
0.83,1.41756,1.03839,4.12176,3.14608,5.09658,1.01268
0.84,1.43103,1.03927,4.10752,3.13242,5.08181,1.01297
0.85,1.44412,1.04013,4.09314,3.11862,5.06694,1.01325
0.86,1.45819,1.04098,4.07863,3.10468,5.05194,1.01353
0.87,1.47161,1.0418,4.06399,3.09056,5.03682,1.01381
0.88,1.4848,1.04259,4.0492,3.07627,5.02158,1.01408
0.89,1.49799,1.04337,4.03429,3.06186,5.00623,1.01435
0.9,1.51148,1.04418,4.01925,3.04732,4.99069,1.01461
0.91,1.52463,1.04498,4.00407,3.03268,4.97504,1.01487
0.92,1.53758,1.04579,3.98876,3.01791,4.95926,1.01512
0.93,1.55054,1.04659,3.97332,3.00299,4.94335,1.01538
0.94,1.56348,1.0474,3.95775,2.98795,4.92732,1.01564
0.95,1.57643,1.04818,3.94205,2.97277,4.91117,1.01589
0.96,1.58929,1.04894,3.92622,2.95744,4.89489,1.01614
0.97,1.602,1.04969,3.91027,2.94195,4.87849,1.01638
0.98,1.61474,1.05044,3.89419,2.92637,4.86195,1.01661
0.99,1.62737,1.05117,3.87798,2.91064,4.84534,1.01685
1,1.63991,1.05187,3.86164,2.89476,4.82862,1.01709
1.01,1.65245,1.05257,3.84518,2.87874,4.81178,1.01733
1.02,1.6649,1.0533,3.8286,2.86262,4.79478,1.01757
1.03,1.67757,1.05404,3.81189,2.84638,4.77764,1.01781
1.04,1.69007,1.05478,3.79505,2.83001,4.76037,1.01805
1.05,1.70264,1.0555,3.77809,2.8135,4.74298,1.01829
1.06,1.71489,1.05624,3.761,2.79689,4.72547,1.01852
1.07,1.72751,1.05695,3.74379,2.78014,4.70785,1.01875
1.08,1.73996,1.05767,3.72645,2.76322,4.69006,1.01898
1.09,1.75191,1.05842,3.709,2.74618,4.67215,1.01924
1.1,1.76364,1.05919,3.69142,2.72907,4.65413,1.0195
1.11,1.77529,1.05997,3.67373,2.71187,4.63599,1.01976
1.12,1.78469,1.06079,3.65593,2.69458,4.61772,1.02003
1.13,1.79564,1.06159,3.63803,2.67717,4.59937,1.0203
1.14,1.80704,1.06243,3.62002,2.65969,4.58087,1.02056
1.15,1.81836,1.06328,3.60189,2.64207,4.56219,1.02081
1.16,1.82941,1.06414,3.58365,2.6243,4.5434,1.02109
1.17,1.84034,1.06498,3.56531,2.60646,4.52457,1.02137
1.18,1.85145,1.06587,3.54685,2.58855,4.50559,1.02165
1.19,1.8625,1.06676,3.52828,2.57057,4.48654,1.02195
1.2,1.87363,1.06763,3.5096,2.55244,4.46739,1.02223
1.21,1.88435,1.06851,3.49081,2.53416,4.44808,1.02252
1.22,1.89501,1.06936,3.47192,2.51574,4.42869,1.02282
1.23,1.9054,1.07025,3.45291,2.49723,4.40916,1.02312
1.24,1.91586,1.07118,3.43381,2.47874,4.38958,1.02342
1.25,1.92651,1.07216,3.4146,2.46019,4.36982,1.02372
1.26,1.93685,1.07309,3.39528,2.44142,4.34999,1.02403
1.27,1.9472,1.07396,3.37587,2.42248,4.33005,1.02433
1.28,1.95736,1.07484,3.35634,2.40349,4.31005,1.02462
1.29,1.96738,1.07583,3.33672,2.38452,4.28988,1.02492
1.3,1.9774,1.07684,3.317,2.36545,4.26963,1.02525
1.31,1.98744,1.07771,3.29718,2.34613,4.24931,1.02554
1.32,1.99735,1.07854,3.27725,2.32667,4.22889,1.02581
1.33,2.00708,1.0795,3.25723,2.30726,4.20835,1.02611
1.34,2.01684,1.08053,3.23711,2.28782,4.18768,1.02643
1.35,2.02647,1.08137,3.2169,2.26815,4.16704,1.0267
1.36,2.03604,1.08212,3.19659,2.24831,4.14639,1.02697
1.37,2.04571,1.08309,3.17618,2.22854,4.12553,1.02731
1.38,2.05517,1.08405,3.15567,2.20866,4.10446,1.02758
1.39,2.06462,1.08484,3.13508,2.18854,4.08343,1.02783
1.4,2.07403,1.08565,3.11438,2.16835,4.06241,1.02815
1.41,2.08217,1.0866,3.0936,2.14821,4.0411,1.02841
1.42,2.0915,1.08745,3.07274,2.12788,4.01976,1.02866
1.43,2.10266,1.08823,3.05177,2.10737,3.99847,1.02898
1.44,2.11262,1.08913,3.03069,2.08688,3.9769,1.02924
1.45,2.12197,1.08995,3.00952,2.06622,3.95524,1.02947
1.46,2.13117,1.09073,2.98826,2.04538,3.93363,1.02979
1.47,2.14033,1.09155,2.9669,2.02458,3.91184,1.03002
1.48,2.14947,1.09238,2.94545,2.00369,3.88996,1.03026
1.49,2.1585,1.09319,2.92391,1.98261,3.86805,1.03057
1.5,2.16758,1.094,2.90228,1.96153,3.84597,1.03079
1.51,2.17653,1.09486,2.88057,1.94033,3.8238,1.03107
1.52,2.18529,1.09563,2.85876,1.91895,3.80159,1.03134
1.53,2.19388,1.09643,2.83686,1.89764,3.77929,1.03155
1.54,2.20248,1.09733,2.81488,1.87616,3.75682,1.03186
1.55,2.21097,1.09812,2.79282,1.8546,3.73435,1.03209
1.56,2.21942,1.09901,2.77066,1.83303,3.71177,1.03238
1.57,2.22778,1.09983,2.74843,1.81121,3.68903,1.03264
1.58,2.23605,1.10064,2.72611,1.78946,3.66635,1.03289
1.59,2.24422,1.10154,2.70371,1.76753,3.64343,1.03319
1.6,2.25216,1.10231,2.68123,1.74553,3.62053,1.03341
1.61,2.26016,1.10322,2.65867,1.72354,3.59758,1.03374
1.62,2.26808,1.10406,2.63603,1.70132,3.57439,1.03398
1.63,2.27586,1.10492,2.61331,1.67923,3.55137,1.03428
1.64,2.28352,1.10583,2.59052,1.65686,3.52795,1.03455
1.65,2.29103,1.10669,2.56764,1.6346,3.50476,1.03484
1.66,2.2985,1.10766,2.5447,1.61213,3.48118,1.03513
1.67,2.30587,1.10851,2.52168,1.58969,3.45779,1.0354
1.68,2.3129,1.10946,2.49858,1.56712,3.43416,1.0357
1.69,2.3201,1.11034,2.47542,1.54449,3.41054,1.03597
1.7,2.32704,1.11128,2.45219,1.52183,3.38686,1.03629
1.71,2.33393,1.11218,2.42888,1.49902,3.36304,1.03656
1.72,2.3407,1.11314,2.40551,1.4763,3.33929,1.03688
1.73,2.34757,1.11405,2.38207,1.45333,3.31529,1.03716
1.74,2.35419,1.11499,2.35856,1.43049,3.29144,1.03747
1.75,2.36068,1.11591,2.33499,1.4074,3.26731,1.03775
1.76,2.36699,1.11688,2.31135,1.38445,3.2433,1.03806
1.77,2.3732,1.11781,2.28765,1.36125,3.21906,1.03834
1.78,2.37938,1.11877,2.26389,1.33819,3.19496,1.03865
1.79,2.38524,1.11973,2.24007,1.31486,3.17056,1.03894
1.8,2.39114,1.12065,2.21619,1.29168,3.14637,1.03923
1.81,2.39692,1.12162,2.19225,1.26822,3.12186,1.03954
1.82,2.40248,1.12253,2.16825,1.24494,3.09755,1.03981
1.83,2.40804,1.12352,2.1442,1.22142,3.07297,1.04013
1.84,2.41271,1.12443,2.1201,1.19801,3.04852,1.04039
1.85,2.41776,1.12538,2.09595,1.17439,3.02388,1.04069
1.86,2.42282,1.12629,2.07175,1.15084,2.99931,1.04096
1.87,2.42778,1.12724,2.04749,1.12716,2.97459,1.04125
1.88,2.43249,1.12813,2.02319,1.10347,2.94993,1.04153
1.89,2.43705,1.12907,1.99885,1.07977,2.92515,1.04178
1.9,2.4416,1.12994,1.97445,1.05592,2.90041,1.04208
1.91,2.44584,1.13092,1.95002,1.0322,2.87551,1.04232
1.92,2.45083,1.13177,1.92554,1.00822,2.85069,1.04263
1.93,2.45511,1.13281,1.90101,0.984467,2.82572,1.04289
1.94,2.45889,1.13364,1.87644,0.960426,2.80081,1.04317
1.95,2.46243,1.13467,1.85183,0.936556,2.77577,1.04345
1.96,2.46558,1.13553,1.82719,0.912509,2.75075,1.04369
1.97,2.4685,1.13653,1.80252,0.888542,2.72573,1.04401
1.98,2.47119,1.13754,1.77783,0.864541,2.70053,1.04426
1.99,2.47348,1.13844,1.7531,0.840472,2.67554,1.04456
2,2.47564,1.13959,1.72836,0.816541,2.65027,1.04485
2.01,2.47735,1.14045,1.7036,0.792387,2.62518,1.0451
2.02,2.4787,1.14165,1.67882,0.768521,2.59996,1.04543
2.03,2.47969,1.14266,1.65403,0.744398,2.57467,1.04569
2.04,2.48032,1.14372,1.62923,0.720526,2.54964,1.046
2.05,2.48058,1.14495,1.60442,0.69655,2.52424,1.04631
2.06,2.48029,1.14596,1.57962,0.672574,2.49913,1.04657
2.07,2.47944,1.14732,1.55482,0.648854,2.47386,1.04694
2.08,2.4782,1.14842,1.53003,0.62482,2.44858,1.04722
2.09,2.47619,1.14975,1.50526,0.601332,2.4236,1.04758
2.1,2.47371,1.15115,1.48051,0.577513,2.39819,1.04793
2.11,2.47052,1.15245,1.45579,0.553999,2.37318,1.04826
2.12,2.46656,1.1541,1.4311,0.530645,2.34796,1.04868
2.13,2.46197,1.15554,1.40646,0.507126,2.32277,1.04903
2.14,2.45639,1.15727,1.38187,0.484164,2.29783,1.04945
2.15,2.45024,1.15901,1.35734,0.460926,2.27256,1.04985
2.16,2.44283,1.16081,1.33287,0.438189,2.24769,1.05025
2.17,2.43462,1.16286,1.30848,0.415452,2.22262,1.05074
2.18,2.4254,1.16485,1.28418,0.392942,2.19771,1.05114
2.19,2.41507,1.16712,1.25998,0.370829,2.17297,1.05165
2.2,2.40359,1.16943,1.23589,0.348713,2.14808,1.05212
2.21,2.39081,1.17197,1.21192,0.327307,2.12362,1.05261
2.22,2.37655,1.17462,1.18808,0.305706,2.09894,1.05318
2.23,2.3609,1.17764,1.16439,0.285181,2.07469,1.0537
2.24,2.34369,1.18058,1.14087,0.264271,2.05041,1.05434
2.25,2.3246,1.18421,1.11753,0.24463,2.02629,1.05493
2.26,2.30383,1.18757,1.09439,0.224721,2.00253,1.05564
2.27,2.28107,1.1919,1.07146,0.206104,1.97864,1.05634
2.28,2.25611,1.19606,1.04877,0.187668,1.9553,1.0571
2.29,2.22916,1.20092,1.02635,0.170041,1.93189,1.05792
2.3,2.19984,1.20603,1.0042,0.15313,1.90888,1.05874
2.31,2.16788,1.21196,0.982365,0.137279,1.886,1.05968
2.32,2.13348,1.21819,0.960858,0.121981,1.86333,1.06065
2.33,2.09645,1.22542,0.939708,0.108351,1.84116,1.06171
2.34,2.05639,1.23305,0.918944,0.094997,1.81886,1.06281
2.35,2.01323,1.24195,0.898596,0.0839529,1.79739,1.064
2.36,1.96668,1.25116,0.878697,0.0729243,1.77575,1.06526
2.37,1.91674,1.26184,0.85928,0.0643125,1.75491,1.06663
2.38,1.86302,1.27332,0.840382,0.0565123,1.73426,1.06815
2.39,1.8055,1.28521,0.82204,0.0495713,1.71423,1.06972
2.4,1.74404,1.29916,0.804296,0.0449315,1.69458,1.07158
2.41,1.67792,1.31347,0.787185,0.0407294,1.67526,1.07346
2.42,1.60709,1.32788,0.77076,0.0366679,1.65676,1.07565
2.43,1.5313,1.34301,0.755069,0.0328817,1.63834,1.07807
2.44,1.45023,1.35798,0.740163,0.0294498,1.62115,1.08075
2.45,1.36324,1.37356,0.726094,0.0260566,1.60409,1.08376
2.46,1.26998,1.38937,0.712927,0.0231993,1.58775,1.08687
2.47,1.17073,1.40508,0.70072,0.020452,1.57243,1.09033
2.48,1.0661,1.42236,0.689532,0.0182499,1.55722,1.09449
2.49,0.957034,1.43949,0.679412,0.0162742,1.5433,1.09907
2.5,0.844566,1.45646,0.670399,0.0145712,1.53009,1.10365
2.51,0.729091,1.47317,0.662526,0.0131114,1.51733,1.10798
2.52,0.611625,1.48842,0.655819,0.0118128,1.50577,1.11182
2.53,0.493749,1.50296,0.650289,0.0106307,1.49493,1.11542
2.54,0.376324,1.51703,0.645935,0.00963231,1.4845,1.11871
2.55,0.260338,1.52836,0.642749,0.00868754,1.47633,1.12154
2.56,0.14704,1.53653,0.64071,0.00782463,1.47007,1.1234
2.57,0.0368381,1.54398,0.639788,0.00708565,1.46389,1.12464
2.58,-0.0698509,1.55047,0.639951,0.00637591,1.4577,1.12512
2.59,-0.172888,1.55558,0.641161,0.00568479,1.45189,1.12485
2.6,-0.272067,1.5574,0.643384,0.00499688,1.44816,1.12379
2.61,-0.366881,1.55398,0.646576,0.00438396,1.44861,1.12216
2.62,-0.458008,1.54621,0.650697,0.00275895,1.45145,1.11999
2.63,-0.54549,1.53536,0.655712,0.00123225,1.45688,1.11747
2.64,-0.628995,1.52394,0.66158,0.00157159,1.46376,1.11415
2.65,-0.709498,1.50983,0.668268,0.00188795,1.47267,1.11031
2.66,-0.787835,1.4928,0.675749,0.00203128,1.48396,1.10611
2.67,-0.864619,1.47449,0.684005,0.00301167,1.4971,1.10151
2.68,-0.940179,1.45283,0.693023,0.00282035,1.51232,1.09652
2.69,-1.01393,1.42995,0.702788,0.00284894,1.52915,1.09126
2.7,-1.08556,1.40555,0.713281,0.00303113,1.54828,1.08596
2.71,-1.15457,1.38028,0.724477,0.00342575,1.56873,1.08028
2.72,-1.22047,1.35478,0.736349,0.00337234,1.58986,1.07467
2.73,-1.28312,1.32944,0.748864,0.0039738,1.61232,1.0691
2.74,-1.3416,1.30509,0.761986,0.00418534,1.63398,1.06351
2.75,-1.39535,1.28004,0.775669,0.00443399,1.65752,1.05801
2.76,-1.44379,1.25685,0.789864,0.00464378,1.67959,1.05258
2.77,-1.4865,1.23427,0.804516,0.00482307,1.70193,1.04734
2.78,-1.52339,1.21162,0.819566,0.00504318,1.72573,1.04241
2.79,-1.55444,1.18921,0.834955,0.00536109,1.75073,1.0378
2.8,-1.57958,1.16828,0.850626,0.0058394,1.77503,1.03345
2.81,-1.59893,1.14914,0.866518,0.00651484,1.79836,1.02954
2.82,-1.61292,1.13155,0.882578,0.00741109,1.8208,1.02597
2.83,-1.62169,1.11557,0.898751,0.0086047,1.84215,1.02272
2.84,-1.62568,1.1008,0.914988,0.00990413,1.86281,1.01984
2.85,-1.62519,1.08706,0.931242,0.011168,1.88287,1.01732
2.86,-1.62069,1.07405,0.947472,0.012178,1.90205,1.01491
2.87,-1.61247,1.06117,0.963637,0.0125807,1.92107,1.01261
2.88,-1.60092,1.04818,0.979704,0.0119178,1.94027,1.01063
2.89,-1.5862,1.03535,0.995639,0.0102549,1.95929,1.00897
2.9,-1.56872,1.02259,1.01141,0.00733046,1.9779,1.00754
2.91,-1.54889,1.00866,1.027,0.000802045,1.99636,1.00642
2.92,-1.52692,0.998814,1.04238,0.000934857,2.01443,1.00555
2.93,-1.50349,0.989375,1.05753,0.000757377,2.03221,1.00493
2.94,-1.47859,0.988081,1.07244,0.0165042,2.04961,1.00444
2.95,-1.45287,0.993041,1.08709,0.0446412,2.06666,1.00398
2.96,-1.42645,0.998565,1.10149,0.0729338,2.08323,1.00371
2.97,-1.39985,1.00262,1.11562,0.0980027,2.09959,1.00341
2.98,-1.37339,1.00693,1.12948,0.122682,2.11528,1.00321
2.99,-1.34735,1.01081,1.14308,0.146283,2.13035,1.00276
3,-1.3221,1.01465,1.15643,0.168638,2.14499,1.00266
3.01,-1.29772,1.01742,1.16953,0.189382,2.15963,1.00229
3.02,-1.27392,1.02023,1.18238,0.20959,2.17352,1.00183
3.03,-1.2508,1.02287,1.19501,0.227913,2.18628,1.00158
3.04,-1.22802,1.02316,1.2074,0.244339,2.19912,1.00002
3.05,-1.20554,1.02308,1.21956,0.259979,2.21062,0.997831
3.06,-1.18321,1.02368,1.23151,0.274618,2.22202,0.996762
3.07,-1.16081,1.02739,1.24323,0.288274,2.2307,0.997812
3.08,-1.13849,1.03165,1.25472,0.301396,2.24142,1.00071
3.09,-1.11629,1.03763,1.266,0.313955,2.25035,1.00463
3.1,-1.09413,1.04393,1.27705,0.325741,2.2586,1.00889
3.11,-1.07214,1.04836,1.28788,0.337342,2.27017,1.01315
3.12,-1.05058,1.05486,1.2985,0.348591,2.27694,1.01707
3.13,-1.02937,1.06198,1.3089,0.359425,2.28141,1.02055
3.14,-1.00823,1.06498,1.31909,0.36978,2.29155,1.02332
3.15,-0.987833,1.0641,1.32907,0.380112,2.30801,1.02573
3.16,-0.968774,1.06104,1.33885,0.390117,2.32685,1.02748
3.17,-0.949158,1.05901,1.34844,0.39959,2.3422,1.02862
3.18,-0.92858,1.06028,1.35783,0.408503,2.35043,1.02949
3.19,-0.90858,1.06475,1.36702,0.416996,2.3508,1.02951
3.2,-0.891025,1.0721,1.37601,0.425026,2.34499,1.0292
3.21,-0.875996,1.08117,1.38485,0.433521,2.33699,1.02898
3.22,-0.862219,1.08841,1.39354,0.440065,2.33003,1.02853
3.23,-0.847859,1.0938,1.40209,0.447797,2.32608,1.02724
3.24,-0.831874,1.09589,1.41049,0.455102,2.32632,1.02533
3.25,-0.814567,1.09419,1.41872,0.460506,2.33082,1.02323
3.26,-0.796626,1.09173,1.42678,0.467677,2.33906,1.02152
3.27,-0.779439,1.08772,1.43466,0.473693,2.35036,1.02065
3.28,-0.76386,1.08167,1.44237,0.477244,2.36416,1.0205
3.29,-0.750418,1.07506,1.44994,0.480765,2.37975,1.02076
3.3,-0.739352,1.06907,1.45739,0.486572,2.39647,1.02091
3.31,-0.730185,1.06217,1.46474,0.492665,2.41395,1.02037
3.32,-0.722548,1.05355,1.472,0.496591,2.431,1.019
3.33,-0.715665,1.04252,1.47919,0.497608,2.44824,1.01679
3.34,-0.708799,1.03046,1.48631,0.497171,2.46458,1.01367
3.35,-0.701535,1.01886,1.49337,0.497541,2.48029,1.01007
3.36,-0.693515,1.00937,1.50034,0.500818,2.49469,1.00628
3.37,-0.684207,1.00226,1.50723,0.508245,2.50816,1.00222
3.38,-0.673082,0.996869,1.51402,0.518639,2.52126,0.998174
3.39,-0.660768,0.993064,1.52069,0.529704,2.53262,0.994513
3.4,-0.647646,0.989263,1.52723,0.538783,2.54341,0.991553
3.41,-0.633398,0.984365,1.53364,0.544062,2.55369,0.989102
3.42,-0.61783,0.978392,1.5399,0.544581,2.56241,0.987114
3.43,-0.6005,0.971412,1.546,0.541394,2.57029,0.985448
3.44,-0.580918,0.963731,1.55191,0.535935,2.57821,0.984101
3.45,-0.559308,0.957091,1.55761,0.530479,2.58493,0.98315
3.46,-0.536503,0.951957,1.5631,0.525294,2.58987,0.982695
3.47,-0.5133,0.948464,1.56835,0.521492,2.5944,0.98304
3.48,-0.490182,0.946613,1.57337,0.520228,2.59968,0.984217
3.49,-0.467266,0.946566,1.57815,0.521776,2.60471,0.985817
3.5,-0.444295,0.948743,1.58271,0.526608,2.6083,0.987493
3.51,-0.42093,0.952744,1.58704,0.533971,2.61015,0.989032
3.52,-0.397125,0.95751,1.59113,0.543421,2.6115,0.990101
3.53,-0.372803,0.962568,1.59499,0.554361,2.61261,0.990602
3.54,-0.34819,0.967671,1.59859,0.566483,2.61454,0.990923
3.55,-0.323471,0.972268,1.60195,0.578361,2.6174,0.991246
3.56,-0.298614,0.976943,1.60506,0.590022,2.62007,0.991622
3.57,-0.274083,0.982627,1.60793,0.601347,2.62084,0.992206
3.58,-0.25005,0.989611,1.61055,0.611294,2.61844,0.993145
3.59,-0.227047,0.998242,1.61294,0.620765,2.61371,0.99472
3.6,-0.205175,1.00757,1.6151,0.629381,2.60818,0.99689
3.61,-0.183999,1.01637,1.61705,0.636996,2.6038,0.999502
3.62,-0.163521,1.02295,1.61879,0.642944,2.60293,1.00248
3.63,-0.144257,1.02768,1.62033,0.647664,2.60473,1.00562
3.64,-0.126339,1.03105,1.62168,0.652105,2.60843,1.00854
3.65,-0.109158,1.03352,1.62286,0.656111,2.61272,1.0111
3.66,-0.0925032,1.03524,1.62387,0.658949,2.6166,1.01332
3.67,-0.0759254,1.03686,1.62471,0.660184,2.61878,1.0154
3.68,-0.0592003,1.03883,1.62539,0.660318,2.6187,1.01722
3.69,-0.0424984,1.04226,1.6259,0.660738,2.61584,1.01887
