time,velocity,ratio,centerX,Xmax,Xmin,Ymax
0,0,1,2,1,3,1
0.01,0.0190607,1.00006,1.9999,0.999948,2.99986,1.00001
0.02,0.0380082,1.00013,1.99962,0.999705,2.99954,1.00005
0.03,0.0573727,1.00017,1.99914,0.999263,2.99903,1.00005
0.04,0.0756973,1.00012,1.99848,0.998548,2.9984,1.00004
0.05,0.0927486,1.00005,1.99763,0.997653,2.99758,1.00001
0.06,0.109274,1.00002,1.99662,0.996628,2.9966,1
0.07,0.126137,1.00007,1.99545,0.995508,2.99538,1.00001
0.08,0.14348,1.00012,1.9941,0.994189,2.99399,1.00002
0.09,0.161369,1.00008,1.99258,0.992672,2.99248,0.999986
0.1,0.1827,0.999965,1.99086,0.990891,2.99091,0.999973
0.11,0.217275,0.999995,1.98888,0.988944,2.98905,1.00005
0.12,0.262529,1.00037,1.98648,0.986878,2.98646,1.00016
0.13,0.304798,1.00066,1.98363,0.984166,2.98335,1.00025
0.14,0.321986,1.00045,1.98049,0.980823,2.98008,1.00008
0.15,0.337967,0.99965,1.9772,0.976771,2.97731,0.999919
0.16,0.361283,0.99947,1.97371,0.973674,2.97428,0.999771
0.17,0.404345,0.999874,1.9699,0.969731,2.97025,1.00013
0.18,0.429784,1.00129,1.96569,0.966532,2.96452,1.00028
0.19,0.442674,1.00089,1.96133,0.962058,2.96093,1.00033
0.2,0.466574,1,1.95679,0.95694,2.95675,0.999904
0.21,0.499469,0.999101,1.95196,0.951328,2.95281,0.999843
0.22,0.517534,0.999671,1.94688,0.946842,2.9471,0.9998
0.23,0.538946,1.00043,1.9416,0.941684,2.94119,1.00018
0.24,0.564347,1.00127,1.93608,0.937244,2.93543,1.00036
0.25,0.583587,1.00079,1.93034,0.931022,2.92992,1.00024
0.26,0.607345,0.99962,1.9244,0.923805,2.92448,0.999957
0.27,0.632814,0.999292,1.91818,0.918026,2.91897,0.999762
0.28,0.650759,0.999832,1.91176,0.91182,2.91201,0.999929
0.29,0.687301,1.0007,1.90509,0.905198,2.90443,1.00031
0.3,0.694587,1.00134,1.89819,0.899432,2.89733,1.00029
0.31,0.723258,1.00032,1.89112,0.891124,2.89116,1.00034
0.32,0.748387,1.00021,1.88374,0.883874,2.88295,0.999745
0.33,0.773083,0.99927,1.87616,0.875813,2.87705,0.999891
0.34,0.786545,0.999967,1.86833,0.86802,2.86825,1.00008
0.35,0.802965,1.00095,1.86039,0.860874,2.8596,1.00031
0.36,0.81188,1.0012,1.85231,0.853384,2.85167,1.00034
0.37,0.834513,1.00037,1.8441,0.84446,2.8437,0.999989
0.38,0.8423,0.9991,1.83571,0.834528,2.83638,1.00003
0.39,0.874544,0.999917,1.82715,0.827528,2.82719,0.999745
0.4,0.88461,1.00066,1.81835,0.818421,2.81789,1.0004
0.41,0.902195,1.00196,1.80941,0.810884,2.80731,1.00017
0.42,0.917572,1.00001,1.80033,0.799857,2.80115,1.00065
0.43,0.932499,1.00039,1.79105,0.79153,2.78992,0.99959
0.44,0.954898,0.998966,1.78164,0.780522,2.78273,1.00007
0.45,0.973793,1.00065,1.77198,0.773148,2.77085,0.999496
0.46,0.991695,1.00003,1.76214,0.761244,2.76297,1.00089
0.47,1.00464,1.0023,1.75219,0.754517,2.75001,1.00004
0.48,1.00659,1.00009,1.74213,0.741239,2.74216,1.00055
0.49,1.02884,1.0002,1.73195,0.732914,2.73147,0.999479
0.5,1.04219,0.998722,1.72161,0.720467,2.72327,1.00012
0.51,1.06111,1.00082,1.71108,0.711416,2.70937,0.999795
0.52,1.07158,1.00109,1.70041,0.701547,2.70057,1.0006
0.53,1.08639,1.00156,1.68964,0.691162,2.68855,1.00025
0.54,1.09231,1.00015,1.67875,0.677968,2.67816,1.00024
0.55,1.11448,0.999509,1.66772,0.668105,2.66869,0.999803
0.56,1.13395,0.99952,1.65649,0.656578,2.65693,0.999696
0.57,1.14969,1.00038,1.64508,0.644307,2.64398,1.00022
0.58,1.15966,1.00177,1.63352,0.635669,2.63285,1.00036
0.59,1.177,1.00108,1.62183,0.62244,2.62167,1.0007
0.6,1.19375,1.00085,1.61,0.610229,2.60816,0.99981
0.61,1.20954,0.99898,1.59799,0.597444,2.59975,1.00013
0.62,1.22913,1.00015,1.58578,0.586323,2.5853,0.999639
0.63,1.24411,1.00036,1.57341,0.572692,2.57318,1.0006
0.64,1.25513,1.00225,1.56091,0.563495,2.55923,1.00011
0.65,1.26363,1.00062,1.54833,0.548211,2.54859,1.0008
0.66,1.27642,1.00075,1.53562,0.536152,2.53416,0.999752
0.67,1.29258,0.999056,1.52277,0.522108,2.52431,1.00015
0.68,1.31005,1.0006,1.50974,0.510663,2.50867,0.999604
0.69,1.32035,1.00048,1.49659,0.496372,2.49681,1.0007
0.7,1.33039,1.0019,1.48334,0.485171,2.48202,1.00032
0.71,1.33776,1.00086,1.47001,0.47024,2.4696,1.00054
0.72,1.34972,1.00067,1.45658,0.457391,2.45569,0.999817
0.73,1.36146,0.999554,1.44302,0.442806,2.44388,1.00009
0.74,1.37892,1.00051,1.42931,0.429435,2.42859,1.00008
0.75,1.38481,1.00132,1.41548,0.416727,2.4149,1.00041
0.76,1.39429,1.00157,1.40158,0.402696,2.40048,1.00046
0.77,1.39874,1.00086,1.38761,0.388157,2.38704,1.0003
0.78,1.41268,0.999921,1.37357,0.373664,2.37415,1.00016
0.79,1.42611,1.00034,1.35938,0.359848,2.35875,0.999788
0.8,1.44238,1.00057,1.34504,0.344978,2.34455,1.00035
0.81,1.44761,1.00188,1.33058,0.332642,2.32954,1.00032
0.82,1.45159,1.00132,1.3161,0.316247,2.31526,1.00083
0.83,1.45444,1.00156,1.30156,0.302858,2.29984,1.00005
0.84,1.46433,0.999766,1.28698,0.286972,2.28801,1.00029
0.85,1.47661,1.00047,1.27226,0.272697,2.27126,0.999749
0.86,1.4843,1.00046,1.25746,0.257236,2.25728,1.00049
0.87,1.49001,1.00206,1.24256,0.244842,2.24123,1.00025
0.88,1.48327,1.00154,1.2277,0.228364,2.22681,1.00076
0.89,1.48538,1.0014,1.21285,0.214021,2.21171,1.00024
0.9,1.48816,1.00006,1.19798,0.19847,2.19876,1.00021
0.91,1.49945,1.00032,1.18305,0.18336,2.18259,0.999938
0.92,1.50067,1.00102,1.16804,0.169044,2.16769,1.00034
0.93,1.50586,1.00165,1.15301,0.154296,2.15228,1.00064
0.94,1.4897,1.00227,1.13802,0.140024,2.13656,1.00053
0.95,1.48341,1.00149,1.12317,0.124525,2.12272,1.00058
0.96,1.48096,1.00103,1.10835,0.10963,2.10769,1.00006
0.97,1.48242,1.00032,1.09355,0.0939048,2.0939,1.00032
0.98,1.47803,1.00158,1.07874,0.0807212,2.07786,1.00015
0.99,1.46699,1.00196,1.06404,0.0653984,2.06294,1.00072
1,1.44947,1.0029,1.04944,0.0525353,2.04787,1.00056
1.01,1.41619,1.00244,1.03513,0.0379023,2.03458,1.00077
1.02,1.39057,1.00247,1.0211,0.0235915,2.01965,1.00049
1.03,1.35959,1.00293,1.00734,0.011644,2.0067,1.00045
1.04,1.31531,1.00424,0.993933,0.000348057,1.99311,1.0006
1.05,1.21961,1.01167,0.981184,-0,1.979,1.00104
1.06,1.00975,1.01961,0.969931,1.58451e-05,1.96641,1.00248
1.07,0.664393,1.02815,0.961447,9.67402e-07,1.95416,1.00459
1.08,0.240404,1.03428,0.956887,-0,1.94551,1.0061
1.09,-0.194223,1.03333,0.956653,0.000314892,1.94702,1.00579
1.1,-0.597966,1.02718,0.96068,-0,1.9552,1.00417
1.11,-0.924204,1.0215,0.968302,-0,1.96304,1.00262
1.12,-1.14734,1.01472,0.97879,-0,1.97526,1.00217
1.13,-1.26243,1.00686,0.990881,-0,1.98876,1.0012
1.14,-1.29423,0.998685,1.00376,-0,2.00352,1.00044
1.15,-1.20946,0.995756,1.01635,0.0107776,2.01725,0.998979
1.16,-1.09956,0.994261,1.02784,0.0240025,2.03144,0.997958
1.17,-1.05004,0.997114,1.03855,0.037973,2.04191,0.999075
1.18,-1.0275,1.00371,1.0489,0.0509318,2.04557,1.00102
1.19,-1.04293,1.00741,1.05921,0.0644136,2.05466,1.00249
1.2,-1.09404,1.00528,1.06988,0.075209,2.06752,1.00142
1.21,-1.11321,0.999135,1.081,0.080174,2.08152,0.999809
1.22,-1.04935,0.994922,1.09185,0.0869704,2.09396,0.9984
1.23,-0.979876,0.995295,1.10198,0.0990001,2.1052,0.99838
1.24,-0.957027,1.0004,1.11161,0.112942,2.11235,1.00011
1.25,-0.956655,1.00603,1.12116,0.124836,2.11676,1.00197
1.26,-0.986297,1.00646,1.13084,0.135266,2.12638,1.00199
1.27,-1.00875,1.00109,1.14083,0.142763,2.14115,1.00029
1.28,-0.977273,0.995587,1.1508,0.147275,2.15334,0.998608
1.29,-0.924507,0.994725,1.16032,0.155297,2.16255,0.998333
1.3,-0.880622,0.999101,1.16929,0.170023,2.17098,0.99958
1.31,-0.883202,1.00476,1.17809,0.181819,2.17532,1.00149
1.32,-0.895447,1.0063,1.18699,0.19011,2.18176,1.0021
1.33,-0.902846,1.0022,1.196,0.198257,2.19493,1.00053
1.34,-0.896987,0.996126,1.20502,0.202455,2.20791,0.998841
1.35,-0.852394,0.994834,1.21382,0.208986,2.21579,0.998218
1.36,-0.818609,0.998546,1.22213,0.221147,2.22332,0.999634
1.37,-0.811785,1.00425,1.23025,0.234035,2.22793,1.00118
1.38,-0.814088,1.00583,1.23839,0.242064,2.2344,1.00198
1.39,-0.816019,1.0022,1.24655,0.247585,2.24445,1.00063
1.4,-0.791917,0.996439,1.25464,0.252777,2.25781,0.998947
1.41,-0.754065,0.995113,1.26236,0.258992,2.26527,0.998236
1.42,-0.726755,0.998509,1.26979,0.267858,2.27017,0.999664
1.43,-0.70624,1.00427,1.27689,0.280726,2.27445,1.00112
1.44,-0.697007,1.00562,1.28392,0.288873,2.28134,1.00184
1.45,-0.69027,1.00159,1.29085,0.290965,2.28888,1.00055
1.46,-0.670198,0.996234,1.29768,0.295043,2.30031,0.998858
1.47,-0.627891,0.995262,1.30416,0.302327,2.30829,0.998231
1.48,-0.598717,0.998871,1.31027,0.308572,2.31027,0.999717
1.49,-0.582426,1.00411,1.3162,0.318485,2.31337,1.00154
1.5,-0.593709,1.00553,1.32205,0.326953,2.31931,1.00169
1.51,-0.606778,1.00109,1.32803,0.32799,2.32674,1.00047
1.52,-0.59609,0.99631,1.33407,0.331105,2.33595,0.998726
1.53,-0.566487,0.995092,1.33987,0.337085,2.344,0.998533
1.54,-0.604058,0.99949,1.3457,0.344551,2.34562,1.00002
1.55,-0.565918,1.00525,1.35157,0.354782,2.34773,1.0017
1.56,-0.601114,1.00531,1.35738,0.361351,2.35481,1.00202
1.57,-0.537017,0.999809,1.36317,0.36388,2.36418,0.99996
1.58,-0.501935,0.994612,1.36839,0.363969,2.37178,0.998498
1.59,-0.449732,0.996193,1.37304,0.371356,2.37499,0.998002
1.6,-0.399236,1.00283,1.3772,0.380803,2.37543,1.00014
1.61,-0.367875,1.00424,1.38105,0.384775,2.38013,1.0019
1.62,-0.331998,1.00557,1.38445,0.385929,2.37766,1.00141
1.63,-0.372599,0.999028,1.38799,0.38869,2.39252,1.00094
1.64,-0.312502,0.996938,1.39135,0.388064,2.3901,0.997953
1.65,-0.271005,0.995095,1.39418,0.390646,2.39936,0.999432
1.66,-0.239456,0.996721,1.39663,0.394959,2.39957,0.999016
1.67,-0.2361,1.00647,1.39901,0.403643,2.39314,1.00119
1.68,-0.260254,1.00441,1.40166,0.405107,2.40011,1.0019
1.69,-0.309511,1.00132,1.40455,0.408336,2.40607,1.00018
1.7,-0.334501,0.995232,1.40773,0.403187,2.40915,0.998197
1.71,-0.305091,0.994508,1.41113,0.408843,2.41633,0.998232
1.72,-0.23535,0.997272,1.41376,0.412503,2.41755,0.99979
1.73,-0.213632,1.00227,1.416,0.417942,2.41348,1.00003
1.74,-0.175404,1.00532,1.41801,0.420212,2.41519,1.00279
1.75,-0.170822,1.0059,1.41977,0.424923,2.41489,1.00086
1.76,-0.0859304,0.995132,1.42098,0.415772,2.42233,0.998395
1.77,-0.0414704,0.989901,1.42156,0.41373,2.42776,0.996844
1.78,0.033797,0.998255,1.42165,0.420845,2.42082,0.998242
