time,velocity,ratio,centerX,Xmax,Xmin,Ymax
0,0,1,2.75,1.75,3.75,1
0.01,0.0195111,1,2.7499,1.74991,3.7499,1
0.02,0.0389838,1.00001,2.74961,1.74962,3.74961,1
0.03,0.0583943,1.00003,2.74913,1.74916,3.7491,1
0.04,0.0777447,1.00006,2.74845,1.7485,3.7484,1.00001
0.05,0.0970244,1.00004,2.74758,1.74762,3.74755,1.00001
0.06,0.116239,1.00006,2.74652,1.74657,3.74648,1.00002
0.07,0.135393,1.0001,2.74526,1.74535,3.7452,1.00002
0.08,0.154482,1.00014,2.74381,1.74394,3.74372,1.00003
0.09,0.173513,1.00018,2.74218,1.74234,3.74204,1.00004
0.1,0.1925,1.00027,2.74035,1.74056,3.74017,1.00007
0.11,0.21143,1.00036,2.73833,1.73861,3.73809,1.00011
0.12,0.230298,1.00045,2.73612,1.73645,3.73583,1.00014
0.13,0.24908,1.00058,2.73373,1.73416,3.73334,1.00016
0.14,0.267793,1.00068,2.73115,1.73167,3.73069,1.0002
0.15,0.286436,1.00078,2.72838,1.72897,3.72788,1.00023
0.16,0.304998,1.0009,2.72543,1.72608,3.72485,1.00029
0.17,0.323525,1.0011,2.72228,1.72304,3.7216,1.00037
0.18,0.341948,1.00133,2.71896,1.71986,3.7181,1.00045
0.19,0.360314,1.00157,2.71545,1.71649,3.7144,1.00052
0.2,0.378571,1.00185,2.71176,1.713,3.71047,1.00058
0.21,0.396773,1.00213,2.70788,1.7093,3.70642,1.00068
0.22,0.414883,1.00243,2.70383,1.70541,3.70217,1.0008
0.23,0.432897,1.00277,2.69959,1.70138,3.69768,1.00092
0.24,0.450813,1.00313,2.69518,1.69717,3.69296,1.00102
0.25,0.468053,1.00356,2.69058,1.69285,3.68809,1.00117
0.26,0.485941,1.00396,2.68581,1.68833,3.68306,1.00132
0.27,0.503686,1.00442,2.68087,1.68368,3.67779,1.00146
0.28,0.52129,1.00497,2.67574,1.67889,3.67224,1.00163
0.29,0.538787,1.00553,2.67045,1.67399,3.66657,1.0018
0.3,0.556152,1.00609,2.66497,1.66888,3.66071,1.00197
0.31,0.573503,1.00669,2.65933,1.66353,3.6546,1.0022
0.32,0.590685,1.00731,2.65351,1.65812,3.64837,1.0024
0.33,0.607793,1.00791,2.64752,1.65251,3.64195,1.00259
0.34,0.62479,1.00866,2.64136,1.64674,3.63524,1.00285
0.35,0.641657,1.00938,2.63503,1.64091,3.62841,1.00307
0.36,0.657781,1.01009,2.62853,1.63486,3.62147,1.00332
0.37,0.674215,1.01088,2.62188,1.62865,3.6142,1.00357
0.38,0.690812,1.01161,2.61505,1.62235,3.6069,1.0038
0.39,0.707101,1.01242,2.60806,1.61581,3.59938,1.0041
0.4,0.723392,1.01315,2.60091,1.60911,3.5917,1.00433
0.41,0.738093,1.01403,2.5936,1.60232,3.58381,1.00464
0.42,0.753766,1.01486,2.58615,1.59539,3.57576,1.0049
0.43,0.769699,1.01569,2.57853,1.58829,3.56763,1.0052
0.44,0.785555,1.01656,2.57076,1.58105,3.5592,1.00545
0.45,0.801377,1.01738,2.56283,1.57363,3.55078,1.00576
0.46,0.817018,1.01824,2.55474,1.56604,3.54203,1.00602
0.47,0.832626,1.01915,2.54649,1.55846,3.53329,1.00632
0.48,0.848105,1.01997,2.53809,1.55054,3.5243,1.00659
0.49,0.863531,1.02089,2.52953,1.54259,3.51518,1.0069
0.5,0.87896,1.02175,2.52082,1.53437,3.50583,1.00717
0.51,0.894086,1.02262,2.51196,1.5261,3.49646,1.00746
0.52,0.909346,1.02351,2.50294,1.5176,3.4868,1.00774
0.53,0.924357,1.02438,2.49378,1.50907,3.47713,1.00802
0.54,0.939409,1.02522,2.48446,1.50031,3.46733,1.00832
0.55,0.954201,1.02606,2.47499,1.49142,3.45732,1.00857
0.56,0.968944,1.02691,2.46538,1.48239,3.44727,1.00888
0.57,0.98366,1.02777,2.45562,1.47317,3.43696,1.00916
0.58,0.998299,1.02859,2.44571,1.46381,3.42655,1.00943
0.59,1.01291,1.02944,2.43565,1.45427,3.41596,1.00972
0.6,1.02734,1.03029,2.42545,1.44467,3.40525,1.00999
0.61,1.04169,1.0311,2.41511,1.43487,3.39442,1.01025
0.62,1.05612,1.03193,2.40462,1.42491,3.38345,1.01054
0.63,1.07038,1.0328,2.39399,1.41484,3.37226,1.01081
0.64,1.08432,1.03357,2.38322,1.40455,3.36102,1.01107
0.65,1.09844,1.03447,2.37231,1.39423,3.34955,1.01136
0.66,1.11241,1.0353,2.36126,1.38371,3.33797,1.01163
0.67,1.12634,1.03603,2.35007,1.37298,3.32634,1.01188
0.68,1.14033,1.037,2.33873,1.36232,3.31439,1.01215
0.69,1.15406,1.03782,2.32726,1.35133,3.30238,1.01243
0.7,1.16746,1.03864,2.31566,1.34024,3.29029,1.0127
0.71,1.18104,1.03948,2.30391,1.32909,3.27804,1.01294
0.72,1.19356,1.04034,2.29204,1.31771,3.26561,1.01324
0.73,1.20652,1.04117,2.28004,1.30622,3.25312,1.01352
0.74,1.2195,1.04209,2.26792,1.29466,3.24038,1.0138
0.75,1.23255,1.04293,2.25566,1.28298,3.22763,1.01407
0.76,1.24612,1.04381,2.24327,1.27111,3.21467,1.01435
0.77,1.25915,1.04481,2.23074,1.25923,3.20152,1.01466
0.78,1.27206,1.04571,2.21809,1.24714,3.18836,1.01498
0.79,1.28484,1.04661,2.2053,1.23492,3.17504,1.01527
0.8,1.29744,1.04752,2.19239,1.22258,3.16157,1.01557
0.81,1.30994,1.04851,2.17936,1.21016,3.14788,1.01586
0.82,1.32211,1.04953,2.1662,1.19759,3.13408,1.0162
0.83,1.33434,1.05047,2.15292,1.18484,3.12024,1.01654
0.84,1.34656,1.0515,2.13952,1.1721,3.10624,1.01688
0.85,1.35853,1.05256,2.12599,1.15924,3.09207,1.0172
0.86,1.37039,1.0536,2.11235,1.14624,3.07777,1.01753
0.87,1.38227,1.05464,2.09859,1.1331,3.06336,1.01786
0.88,1.39397,1.0557,2.08471,1.11985,3.0488,1.0182
0.89,1.40523,1.05678,2.07071,1.10653,3.03419,1.01856
0.9,1.41758,1.05796,2.0566,1.09316,3.01939,1.01894
0.91,1.42898,1.05916,2.04237,1.07968,3.00444,1.01931
0.92,1.44019,1.06032,2.02802,1.06604,2.9894,1.01969
0.93,1.45103,1.06148,2.01357,1.0523,2.97428,1.02007
0.94,1.46187,1.06265,1.999,1.03847,2.95903,1.02044
0.95,1.47242,1.06383,1.98433,1.02455,2.94368,1.02082
0.96,1.48281,1.06504,1.96956,1.01051,2.92819,1.0212
0.97,1.49318,1.06627,1.95468,0.996409,2.91261,1.02159
0.98,1.50335,1.06757,1.9397,0.982235,2.89686,1.022
0.99,1.5134,1.06886,1.92462,0.967953,2.88101,1.0224
1,1.52311,1.07014,1.90943,0.953584,2.86511,1.0228
1.01,1.53293,1.07139,1.89415,0.939111,2.84916,1.0232
1.02,1.54263,1.07264,1.87878,0.924556,2.83311,1.0236
1.03,1.55203,1.0739,1.86331,0.909909,2.81698,1.024
1.04,1.5614,1.07517,1.84774,0.895163,2.80075,1.02441
1.05,1.57062,1.07642,1.83208,0.88032,2.78444,1.02482
1.06,1.5797,1.0777,1.81633,0.865395,2.76802,1.02523
1.07,1.58856,1.07899,1.80049,0.850415,2.75152,1.02564
1.08,1.59746,1.08029,1.78456,0.835325,2.73488,1.02604
1.09,1.60595,1.08158,1.76855,0.82016,2.71819,1.02643
1.1,1.61442,1.08286,1.75244,0.804919,2.70143,1.02683
1.11,1.62264,1.08412,1.73626,0.789608,2.68465,1.02722
1.12,1.63077,1.08537,1.71999,0.774206,2.66779,1.02762
1.13,1.63856,1.08662,1.70365,0.758732,2.65086,1.02801
1.14,1.64629,1.08789,1.68723,0.743195,2.63383,1.0284
1.15,1.65394,1.08917,1.67073,0.727602,2.61672,1.02879
1.16,1.6613,1.09044,1.65415,0.711921,2.59954,1.02917
1.17,1.66847,1.0917,1.6375,0.69619,2.58232,1.02954
1.18,1.67543,1.09295,1.62079,0.680397,2.56505,1.02992
1.19,1.68206,1.09421,1.604,0.664561,2.54772,1.03029
1.2,1.68856,1.09552,1.58715,0.648655,2.53029,1.03069
1.21,1.69482,1.09685,1.57023,0.632684,2.51277,1.03109
1.22,1.70097,1.09819,1.55325,0.616661,2.49519,1.03149
1.23,1.70672,1.09954,1.53622,0.600596,2.47753,1.03188
1.24,1.71218,1.10089,1.51912,0.584506,2.45982,1.03226
1.25,1.71733,1.10227,1.50198,0.568412,2.44206,1.03263
1.26,1.7222,1.10364,1.48478,0.552296,2.4243,1.03301
1.27,1.72677,1.10501,1.46754,0.536169,2.40655,1.03339
1.28,1.73095,1.10642,1.45025,0.520002,2.38869,1.03378
1.29,1.73483,1.10784,1.43292,0.50379,2.37082,1.03419
1.3,1.73831,1.1093,1.41555,0.487526,2.35286,1.03461
1.31,1.74137,1.11078,1.39816,0.471252,2.33486,1.03503
1.32,1.74397,1.1123,1.38073,0.454998,2.3168,1.03544
1.33,1.74621,1.11388,1.36328,0.438805,2.29872,1.03586
1.34,1.74789,1.11554,1.34581,0.422713,2.2806,1.03627
1.35,1.74919,1.11727,1.32832,0.4067,2.26248,1.0367
1.36,1.75009,1.11907,1.31083,0.390747,2.24432,1.03714
1.37,1.75034,1.12099,1.29332,0.374852,2.22612,1.03763
1.38,1.75003,1.12295,1.27582,0.358989,2.20789,1.03812
1.39,1.7488,1.12492,1.25833,0.343165,2.18972,1.03861
1.4,1.74723,1.12691,1.24085,0.3274,2.17156,1.03911
1.41,1.74503,1.12896,1.22339,0.311749,2.15345,1.0396
1.42,1.74211,1.13115,1.20595,0.296259,2.1353,1.04011
1.43,1.73849,1.13351,1.18855,0.280962,2.11714,1.04066
1.44,1.73406,1.13609,1.17119,0.265899,2.09895,1.04125
1.45,1.72895,1.13877,1.15387,0.25103,2.08081,1.04185
1.46,1.7229,1.14156,1.13661,0.236339,2.06271,1.04246
1.47,1.71592,1.14448,1.11942,0.221829,2.04465,1.04309
1.48,1.70798,1.14752,1.1023,0.207565,2.02668,1.04373
1.49,1.69904,1.15071,1.08526,0.193568,2.00877,1.04439
1.5,1.68913,1.15414,1.06832,0.179866,1.99091,1.04509
1.51,1.67815,1.15784,1.05149,0.166587,1.97312,1.04584
1.52,1.66571,1.16184,1.03477,0.153766,1.9554,1.04661
1.53,1.65232,1.16616,1.01818,0.141399,1.93773,1.0474
1.54,1.63758,1.17078,1.00173,0.12951,1.92016,1.04823
1.55,1.6216,1.17569,0.985434,0.118146,1.90277,1.04908
1.56,1.60414,1.18094,0.969306,0.107328,1.88552,1.04997
1.57,1.58517,1.1866,0.95336,0.0971888,1.86846,1.05089
1.58,1.56465,1.19272,0.937611,0.0876809,1.85153,1.05188
1.59,1.54244,1.19935,0.922076,0.0788552,1.83468,1.05293
1.6,1.51865,1.20642,0.906771,0.0705785,1.81794,1.05402
1.61,1.49296,1.21414,0.891714,0.0632539,1.80142,1.05519
1.62,1.46535,1.22244,0.876924,0.0567835,1.78516,1.05642
1.63,1.43574,1.23132,0.862419,0.0511266,1.76911,1.0577
1.64,1.4041,1.24076,0.848222,0.0461937,1.75333,1.05907
1.65,1.37022,1.25102,0.834352,0.0423935,1.73786,1.06053
1.66,1.33399,1.26173,0.820832,0.0391543,1.72266,1.06207
1.67,1.29564,1.27303,0.807684,0.0365444,1.70771,1.06372
1.68,1.25493,1.28449,0.794933,0.033997,1.69303,1.06551
1.69,1.21172,1.29623,0.782602,0.0315853,1.67858,1.06744
1.7,1.16576,1.30801,0.770716,0.0292256,1.66446,1.06945
1.71,1.11716,1.32013,0.759301,0.0269658,1.65057,1.07168
1.72,1.06559,1.33244,0.748387,0.0249078,1.63706,1.07405
1.73,1.01109,1.34454,0.738003,0.0229844,1.62413,1.0764
1.74,0.953675,1.35705,0.728177,0.0212118,1.61145,1.07901
1.75,0.893643,1.36982,0.718938,0.0195721,1.59924,1.08194
1.76,0.831211,1.38295,0.710311,0.0180836,1.58744,1.08517
1.77,0.766726,1.39575,0.702318,0.0167134,1.57646,1.08851
1.78,0.700592,1.40867,0.694978,0.0155861,1.56577,1.09185
1.79,0.632802,1.42133,0.688309,0.0145142,1.55546,1.0951
1.8,0.563865,1.43303,0.682323,0.0134671,1.54594,1.09804
1.81,0.494085,1.44455,0.67703,0.0125501,1.53656,1.10075
1.82,0.423647,1.45569,0.672438,0.0117805,1.52771,1.10336
1.83,0.353234,1.46561,0.66855,0.010926,1.51985,1.10575
1.84,0.283179,1.47424,0.665366,0.0102285,1.51321,1.10788
1.85,0.21379,1.48155,0.662878,0.00952638,1.50753,1.10968
1.86,0.145242,1.48818,0.66108,0.00884792,1.50219,1.11118
1.87,0.0777834,1.49473,0.659963,0.00822089,1.49632,1.11216
1.88,0.0117957,1.49964,0.659513,0.00766189,1.49153,1.11264
1.89,-0.0525744,1.50375,0.659714,0.0071183,1.48722,1.11286
1.9,-0.115158,1.50534,0.66055,0.00657643,1.48479,1.1126
1.91,-0.176012,1.50489,0.662003,0.0060743,1.48385,1.11195
1.92,-0.235034,1.50176,0.664054,0.00557685,1.48502,1.11089
1.93,-0.292507,1.4963,0.666689,0.00511846,1.48796,1.10939
1.94,-0.348414,1.4894,0.66989,0.00465465,1.492,1.10762
1.95,-0.402717,1.48085,0.673642,0.00419603,1.49725,1.1055
1.96,-0.455667,1.46999,0.67793,0.00294451,1.50376,1.10309
1.97,-0.507053,1.45785,0.68274,0.00116797,1.51074,1.10037
1.98,-0.556876,1.44608,0.688056,0.00124944,1.5191,1.09746
1.99,-0.605182,1.43306,0.693863,0.00181002,1.52923,1.09445
2,-0.652007,1.41889,0.700145,0.00228441,1.54019,1.09106
2.01,-0.697653,1.40303,0.70689,0.00232978,1.5524,1.0874
2.02,-0.742125,1.38679,0.714085,0.00198873,1.5647,1.08358
2.03,-0.785029,1.36986,0.721717,0.0026758,1.57818,1.07911
2.04,-0.826424,1.35197,0.729772,0.00268479,1.59233,1.07457
2.05,-0.866169,1.33363,0.738232,0.00306732,1.60777,1.07004
2.06,-0.904021,1.31515,0.74708,0.00271847,1.62356,1.06582
2.07,-0.93946,1.29777,0.756296,0.00345713,1.63956,1.06165
2.08,-0.972619,1.28068,0.765855,0.00366657,1.65532,1.05762
2.09,-1.00314,1.26312,0.775732,0.00393733,1.67232,1.05369
2.1,-1.03083,1.2466,0.785901,0.00398839,1.68822,1.04979
2.11,-1.05539,1.23002,0.796331,0.00404536,1.70489,1.04604
2.12,-1.07697,1.21348,0.806993,0.00412675,1.72232,1.04249
2.13,-1.09549,1.19812,0.817854,0.00422197,1.73882,1.03912
2.14,-1.11098,1.18388,0.828886,0.00434487,1.7543,1.03587
2.15,-1.12346,1.16946,0.840058,0.00451511,1.7707,1.03274
2.16,-1.133,1.15527,0.85134,0.00478897,1.78754,1.02977
2.17,-1.13979,1.14138,0.862703,0.00514502,1.80484,1.02707
2.18,-1.14384,1.12813,0.874121,0.00555219,1.82176,1.02446
2.19,-1.1453,1.11559,0.885567,0.00602367,1.83834,1.02206
2.2,-1.14433,1.10397,0.897014,0.00659818,1.85419,1.01984
2.21,-1.14104,1.09356,0.908441,0.00738238,1.86875,1.01776
2.22,-1.13568,1.08364,0.919824,0.008309,1.88311,1.0158
2.23,-1.12826,1.07431,0.931144,0.00922846,1.89711,1.01409
2.24,-1.11898,1.06533,0.942379,0.00996763,1.91071,1.01246
2.25,-1.10803,1.05664,0.953514,0.0105109,1.92398,1.01092
2.26,-1.09555,1.04805,0.964532,0.0107387,1.93709,1.00945
2.27,-1.08165,1.03963,0.975418,0.0104976,1.94982,1.00809
2.28,-1.06638,1.03127,0.986158,0.00974359,1.9623,1.00681
2.29,-1.05003,1.02291,0.996739,0.00829441,1.9746,1.00568
2.3,-1.03242,1.01448,1.00715,0.00605841,1.98675,1.00468
2.31,-1.01374,1.0048,1.01738,0.000964911,1.99902,1.00382
2.32,-0.99419,0.997735,1.02742,0.000206325,2.01088,1.00306
2.33,-0.973738,0.991463,1.03726,0.000486664,2.02258,1.00241
2.34,-0.95254,0.985396,1.04689,0.000591324,2.03408,1.00189
2.35,-0.930704,0.979477,1.05631,0.000729326,2.04556,1.00143
2.36,-0.908394,0.980692,1.0655,0.0149882,2.05656,1.00107
2.37,-0.885647,0.982802,1.07447,0.0307764,2.06716,1.00068
2.38,-0.862806,0.985067,1.08321,0.0465307,2.07757,1.00036
2.39,-0.839941,0.987365,1.09173,0.0620028,2.08773,1.00007
2.4,-0.817193,0.98928,1.10001,0.0765464,2.09731,0.999551
2.41,-0.794614,0.99132,1.10807,0.0903546,2.10627,0.999208
2.42,-0.772525,0.993525,1.1159,0.104122,2.11502,0.998936
2.43,-0.750856,0.995125,1.12352,0.117103,2.12384,0.998477
2.44,-0.729817,0.996241,1.13092,0.12933,2.1323,0.997723
2.45,-0.709215,0.99726,1.13812,0.140819,2.14039,0.997044
2.46,-0.689139,0.998436,1.14511,0.151793,2.14802,0.996549
2.47,-0.66956,0.999385,1.1519,0.162083,2.15474,0.995716
2.48,-0.650436,0.999342,1.1585,0.171541,2.16177,0.994461
2.49,-0.631604,0.999874,1.16491,0.18046,2.16739,0.993338
2.5,-0.613042,1.00108,1.17113,0.188948,2.1727,0.992942
2.51,-0.594672,1.00256,1.17717,0.196617,2.1784,0.993429
2.52,-0.576546,1.00467,1.18303,0.203966,2.18428,0.994777
2.53,-0.558465,1.00797,1.1887,0.210873,2.18853,0.996712
2.54,-0.540601,1.01182,1.1942,0.217259,2.19188,0.998984
2.55,-0.522855,1.01462,1.19952,0.223564,2.1974,1.00134
2.56,-0.505331,1.01712,1.20466,0.229238,2.20294,1.00374
2.57,-0.48791,1.02046,1.20963,0.235015,2.20672,1.00602
2.58,-0.470795,1.02373,1.21442,0.240314,2.20978,1.0081
2.59,-0.453785,1.02554,1.21904,0.245509,2.21506,1.00993
2.6,-0.436846,1.02584,1.2235,0.250285,2.22258,1.01163
2.61,-0.420265,1.02542,1.22778,0.254982,2.23079,1.01301
2.62,-0.403695,1.02545,1.23191,0.259623,2.23735,1.01403
2.63,-0.386985,1.02682,1.23586,0.263946,2.24055,1.01481
2.64,-0.370603,1.02986,1.23965,0.268232,2.24038,1.01552
2.65,-0.354825,1.034,1.24328,0.271701,2.23671,1.01591
2.66,-0.339713,1.03909,1.24675,0.275125,2.2307,1.01601
2.67,-0.325176,1.04426,1.25008,0.278475,2.22421,1.01593
2.68,-0.3108,1.04897,1.25326,0.281316,2.21818,1.01586
2.69,-0.296285,1.05273,1.2563,0.283724,2.21335,1.01569
2.7,-0.28136,1.0554,1.25919,0.286399,2.21027,1.01522
2.71,-0.266121,1.05692,1.26193,0.289369,2.20907,1.01448
2.72,-0.250459,1.05643,1.26451,0.291147,2.21008,1.01361
2.73,-0.234796,1.05483,1.26694,0.292284,2.2126,1.0128
2.74,-0.219156,1.05286,1.26921,0.293906,2.21678,1.01226
2.75,-0.203721,1.05073,1.27133,0.295792,2.22207,1.012
2.76,-0.188716,1.04795,1.27329,0.296693,2.22832,1.01212
2.77,-0.174133,1.04453,1.2751,0.2966,2.23506,1.01239
2.78,-0.159994,1.04086,1.27678,0.296544,2.24239,1.01268
2.79,-0.146302,1.03726,1.27831,0.297018,2.24974,1.01274
2.8,-0.132649,1.03343,1.2797,0.297565,2.25697,1.01245
2.81,-0.11904,1.02914,1.28096,0.297542,2.2639,1.01183
2.82,-0.105376,1.02423,1.28209,0.296511,2.27039,1.01085
2.83,-0.0914828,1.0185,1.28307,0.294289,2.27647,1.00943
2.84,-0.0772598,1.01266,1.28392,0.291697,2.2818,1.00765
2.85,-0.0627101,1.0072,1.28462,0.289331,2.2864,1.00572
2.86,-0.0478172,1.0025,1.28518,0.287975,2.2903,1.00366
2.87,-0.0326032,0.998624,1.28558,0.288002,2.29381,1.00152
2.88,-0.0170056,0.995678,1.28583,0.289345,2.2967,0.999341
2.89,-0.00111565,0.993569,1.28592,0.291314,2.29878,0.997278
2.9,0.0148966,0.991818,1.28586,0.293377,2.3006,0.9954
