time,velocity,ratio,centerX,Xmax,Xmin,Ymax
0,0,1,1.25,0.25,2.25,1
0.01,0.0166723,1.00005,1.24992,0.249974,2.24989,1.00001
0.02,0.0331934,1.00012,1.24967,0.249807,2.24962,1.00003
0.03,0.0493161,1.00027,1.24926,0.249531,2.24913,1.00007
0.04,0.0650642,1.00043,1.24868,0.249097,2.24849,1.00013
0.05,0.0803315,1.0006,1.24796,0.248485,2.24765,1.00019
0.06,0.0952601,1.00076,1.24708,0.247685,2.24665,1.00024
0.07,0.109739,1.0009,1.24606,0.246717,2.2455,1.00029
0.08,0.123458,1.00095,1.24489,0.245555,2.24426,1.0003
0.09,0.137536,1.00098,1.24358,0.244273,2.24291,1.00029
0.1,0.15226,1.00093,1.24214,0.242831,2.2415,1.00026
0.11,0.167089,1.00082,1.24054,0.241236,2.24003,1.00022
0.12,0.182313,1.00064,1.2388,0.239417,2.23854,1.0002
0.13,0.198693,1.00048,1.23689,0.237402,2.23685,1.00021
0.14,0.215364,1.00039,1.23482,0.235252,2.23487,1.0002
0.15,0.230129,1.00042,1.23259,0.233037,2.23254,1.00017
0.16,0.244648,1.0006,1.23022,0.230729,2.22971,1.00009
0.17,0.258669,1.00059,1.2277,0.228233,2.22717,1.00007
0.18,0.27356,1.00058,1.22504,0.225492,2.22459,1.00013
0.19,0.289053,1.00062,1.22223,0.222676,2.22192,1.00023
0.2,0.304731,1.00059,1.21926,0.219646,2.21911,1.00032
0.21,0.318709,1.00083,1.21615,0.216836,2.21582,1.00033
0.22,0.332187,1.00115,1.21289,0.213936,2.21218,1.00026
0.23,0.345448,1.00128,1.2095,0.210813,2.20867,1.00021
0.24,0.359244,1.00125,1.20598,0.207213,2.20531,1.0003
0.25,0.373343,1.00118,1.20232,0.203224,2.20182,1.00048
0.26,0.38636,1.00106,1.19852,0.199116,2.19807,1.00054
0.27,0.399647,1.0012,1.19459,0.19536,2.19368,1.00036
0.28,0.413324,1.00137,1.19053,0.191794,2.18955,1.00025
0.29,0.425158,1.00136,1.18633,0.187814,2.18553,1.00022
0.3,0.436944,1.00106,1.18202,0.182984,2.18151,1.00033
0.31,0.449935,1.00091,1.17759,0.178334,2.17726,1.00037
0.32,0.463877,1.00082,1.17302,0.173733,2.17288,1.0004
0.33,0.47613,1.00117,1.16832,0.169635,2.16791,1.00031
0.34,0.48785,1.00143,1.1635,0.164793,2.16243,1.00024
0.35,0.499976,1.00153,1.15857,0.159797,2.15728,1.00027
0.36,0.511746,1.00139,1.15351,0.154693,2.15289,1.00049
0.37,0.522981,1.0016,1.14833,0.149713,2.14771,1.0006
0.38,0.534957,1.00172,1.14304,0.144395,2.1422,1.00062
0.39,0.545491,1.00202,1.13764,0.139378,2.13638,1.00052
0.4,0.555019,1.00236,1.13214,0.134347,2.13069,1.00053
0.41,0.564775,1.00239,1.12654,0.128911,2.12533,1.00059
0.42,0.573878,1.00217,1.12085,0.122884,2.11995,1.0007
0.43,0.583642,1.00231,1.11506,0.116755,2.1137,1.00078
0.44,0.593879,1.0023,1.10917,0.11112,2.10798,1.00073
0.45,0.602936,1.00234,1.10319,0.105464,2.102,1.0006
0.46,0.611652,1.00265,1.09712,0.0997269,2.0956,1.00058
0.47,0.619735,1.00253,1.09096,0.0934401,2.08966,1.00063
0.48,0.627842,1.00236,1.08472,0.087009,2.08365,1.00068
0.49,0.636371,1.00253,1.0784,0.0810022,2.07755,1.0008
0.5,0.643225,1.00279,1.072,0.074941,2.07092,1.00078
0.51,0.649976,1.00311,1.06554,0.0685644,2.06382,1.00073
0.52,0.655742,1.00336,1.05901,0.0623351,2.05716,1.00076
0.53,0.661005,1.00371,1.05243,0.0562251,2.05065,1.00092
0.54,0.665646,1.00389,1.04579,0.0497526,2.04414,1.00107
0.55,0.669427,1.00411,1.03912,0.0433333,2.03738,1.00112
0.56,0.67266,1.00466,1.03241,0.0371486,2.03018,1.00116
0.57,0.674149,1.00508,1.02567,0.0313267,2.02355,1.00117
0.58,0.67425,1.00574,1.01893,0.0257564,2.01672,1.0012
0.59,0.672218,1.00645,1.0122,0.01999,2.00983,1.00134
0.6,0.668788,1.00726,1.00549,0.0144659,2.00294,1.00145
0.61,0.663651,1.0083,0.998831,0.00965053,1.99631,1.00158
0.62,0.655236,1.00981,0.992236,0.00547678,1.98948,1.00173
0.63,0.643745,1.0108,0.985739,-0,1.98235,1.00188
0.64,0.626884,1.0144,0.979383,1.35659e-08,1.97566,1.00205
0.65,0.605255,1.01827,0.973219,1.95545e-09,1.9689,1.00244
0.66,0.576452,1.02195,0.967302,1.26532e-08,1.96265,1.00287
0.67,0.537966,1.02579,0.961724,-0,1.9563,1.00338
0.68,0.490451,1.02996,0.956571,3.97502e-08,1.94986,1.00414
0.69,0.431107,1.03411,0.951954,1.78992e-09,1.94386,1.00508
0.7,0.364575,1.03816,0.94797,-0,1.93846,1.00621
0.71,0.293335,1.04212,0.944674,1.07714e-08,1.93315,1.00729
0.72,0.217881,1.04544,0.942113,1.49506e-08,1.92846,1.00804
0.73,0.140782,1.04804,0.940317,1.97364e-08,1.9246,1.00853
0.74,0.0623796,1.04899,0.939298,2.55678e-08,1.92328,1.00875
0.75,-0.0168972,1.04858,0.939068,1.15868e-09,1.92394,1.0087
0.76,-0.0958108,1.04724,0.93963,2.1987e-09,1.92577,1.00837
0.77,-0.172786,1.04489,0.940973,2.36863e-09,1.92876,1.00767
0.78,-0.245592,1.04187,0.943066,2.23408e-09,1.93256,1.00674
0.79,-0.311498,1.03877,0.945854,2.73239e-09,1.93671,1.0059
0.8,-0.370661,1.03545,0.949267,3.83189e-09,1.94137,1.0051
0.81,-0.425291,1.03219,0.95325,5.43591e-09,1.94612,1.00439
0.82,-0.469431,1.02913,0.957731,-0,1.95103,1.00393
0.83,-0.503066,1.02564,0.962597,9.24265e-09,1.95684,1.00351
0.84,-0.531837,1.02217,0.96777,1.45172e-08,1.96272,1.00311
0.85,-0.556716,1.01909,0.973218,4.35792e-05,1.9682,1.00286
0.86,-0.569566,1.01567,0.978855,-0,1.97433,1.00263
0.87,-0.574229,1.01193,0.984578,0.00047257,1.98111,1.00213
0.88,-0.572314,1.0079,0.990313,-0,1.98757,1.00164
0.89,-0.56469,1.00433,0.996001,-0,1.99343,1.00104
0.9,-0.55147,1.00036,1.00159,-0,1.99994,1.00033
0.91,-0.530634,0.996045,1.007,-0,2.00734,0.999701
0.92,-0.505026,0.994882,1.01218,0.00537206,2.01408,0.999215
0.93,-0.475114,0.993141,1.01708,0.00903218,2.0199,0.998539
0.94,-0.442722,0.992245,1.02167,0.0134132,2.02482,0.997903
0.95,-0.409778,0.991975,1.02593,0.0183372,2.0296,0.997561
0.96,-0.379714,0.992803,1.02988,0.0244405,2.034,0.997547
0.97,-0.352479,0.993943,1.03353,0.0291106,2.03726,0.997994
0.98,-0.328228,0.995702,1.03693,0.0339503,2.03994,0.998685
0.99,-0.307318,0.998378,1.04011,0.0396666,2.04196,0.999522
1,-0.291642,1.00183,1.0431,0.0454266,2.04288,1.00055
1.01,-0.28001,1.00493,1.04595,0.050259,2.04324,1.0014
1.02,-0.271455,1.00719,1.04871,0.0541194,2.04401,1.0021
1.03,-0.265581,1.00892,1.05139,0.0575633,2.04526,1.00271
1.04,-0.262262,1.00944,1.05403,0.0608963,2.04819,1.00303
1.05,-0.259091,1.00861,1.05663,0.0631068,2.05159,1.0028
1.06,-0.255139,1.00698,1.05921,0.0647152,2.05534,1.00226
1.07,-0.248756,1.00502,1.06173,0.066161,2.05897,1.00141
1.08,-0.238735,1.00211,1.06417,0.0665804,2.06326,1.00044
1.09,-0.223781,0.999089,1.06648,0.066745,2.06756,0.999494
1.1,-0.206266,0.99652,1.06863,0.0663958,2.07105,0.998837
1.11,-0.185977,0.994393,1.0706,0.065916,2.07379,0.998306
1.12,-0.160175,0.993032,1.07233,0.066223,2.07616,0.997965
1.13,-0.135141,0.993304,1.07381,0.0682727,2.0775,0.997885
1.14,-0.11475,0.994198,1.07505,0.0703703,2.07826,0.99812
1.15,-0.0975826,0.995657,1.07611,0.0722178,2.07819,0.998628
1.16,-0.0829331,0.997812,1.07701,0.0748012,2.0781,0.999459
1.17,-0.0689844,1.00068,1.07777,0.0783101,2.07782,1.00044
1.18,-0.0567689,1.00324,1.0784,0.0811044,2.0772,1.00128
1.19,-0.047211,1.00583,1.07892,0.0834658,2.07554,1.00184
1.2,-0.0414178,1.00787,1.07936,0.0852776,2.07427,1.00232
1.21,-0.0377633,1.00852,1.07975,0.0861806,2.07454,1.00265
1.22,-0.0351198,1.00811,1.08012,0.0864713,2.07571,1.00268
1.23,-0.0321982,1.00699,1.08045,0.0854938,2.07647,1.00245
1.24,-0.027498,1.0052,1.08076,0.0842171,2.07724,1.00169
1.25,-0.0174457,1.0026,1.08098,0.0829198,2.07923,1.00075
1.26,-0.00375756,1.00015,1.08109,0.0817331,2.08123,0.999903
1.27,0.0123029,0.997631,1.08105,0.0797569,2.08302,0.999256
