time,velocity,ratio,centerX,Xmax,Xmin,Ymax
0,0,1,2.75,1.75,3.75,1
0.01,0.0195842,1.00006,2.7499,1.74994,3.74986,1.00001
0.02,0.0393254,1.00012,2.74961,1.74969,3.74953,1.00004
0.03,0.0594347,1.00015,2.74911,1.74922,3.74902,1.00005
0.04,0.0784952,1.0001,2.74842,1.74849,3.74836,1.00004
0.05,0.0963196,1.00005,2.74755,1.74757,3.7475,1.00001
0.06,0.113675,1.00002,2.7465,1.7465,3.74648,1
0.07,0.131444,1.00007,2.74528,1.74534,3.74521,1.00001
0.08,0.149667,1.00011,2.74387,1.74395,3.74377,1.00001
0.09,0.168498,1.00006,2.74228,1.74236,3.74219,0.999975
0.1,0.192311,0.999933,2.74049,1.74047,3.74057,0.999982
0.11,0.231052,1.00003,2.73838,1.73849,3.73857,1.00007
0.12,0.278989,1.00043,2.73584,1.73626,3.73576,1.00018
0.13,0.316396,1.00055,2.73282,1.73331,3.73266,1.00023
0.14,0.334511,1.00021,2.72957,1.72968,3.72934,1.00004
0.15,0.352536,0.999634,2.72614,1.72595,3.72636,0.999842
0.16,0.38086,0.99952,2.72249,1.72227,3.72293,0.99985
0.17,0.422903,1.00013,2.71847,1.71863,3.7187,1.00016
0.18,0.443798,1.00115,2.71414,1.71496,3.71303,1.00018
0.19,0.464207,1.00046,2.7096,1.70973,3.70939,1.00029
0.2,0.499795,0.999938,2.7048,1.70509,3.70501,0.999896
0.21,0.532015,0.999456,2.6996,1.69906,3.70004,0.999947
0.22,0.549678,0.999999,2.6942,1.69424,3.69393,0.999848
0.23,0.582403,1.00026,2.68856,1.68877,3.68888,1.00032
0.24,0.607212,1.00122,2.6826,1.68351,3.68128,1.00011
0.25,0.629833,1.00011,2.67642,1.67632,3.67662,1.00026
0.26,0.660435,0.999909,2.66995,1.67007,3.67001,0.99988
0.27,0.675532,0.999707,2.66328,1.66312,3.66353,0.999913
0.28,0.704547,1.00009,2.65639,1.65619,3.6562,1.0001
0.29,0.719814,1.00096,2.64926,1.65026,3.64857,1.00012
0.3,0.745196,1.0005,2.64195,1.64196,3.64174,1.00039
0.31,0.762287,1.00053,2.6344,1.63501,3.63386,0.999957
0.32,0.785531,0.999594,2.62668,1.62614,3.62696,1
0.33,0.813183,1.00016,2.61866,1.61905,3.61832,0.999791
0.34,0.836023,1.0001,2.61043,1.61039,3.61066,1.00023
0.35,0.849163,1.00097,2.60198,1.60232,3.60067,1.00014
0.36,0.87205,1.00066,2.59339,1.594,3.59319,1.00025
0.37,0.878835,1.00008,2.58465,1.5847,3.58455,1
0.38,0.914347,0.999679,2.5757,1.57502,3.57562,0.999977
0.39,0.929786,1.00026,2.56651,1.56696,3.5665,1.00003
0.4,0.950114,1.00083,2.55706,1.55743,3.55639,1.00031
0.41,0.967535,1.00076,2.54749,1.54782,3.54695,1.00032
0.42,0.981081,1.00039,2.53775,1.53836,3.53754,0.999977
0.43,1.00553,0.999467,2.52782,1.5273,3.52849,1.00006
0.44,1.02475,1.00006,2.51767,1.51816,3.51755,0.999757
0.45,1.0373,1.00012,2.50735,1.50686,3.50726,1.00032
0.46,1.05464,1.00151,2.49688,1.49872,3.49593,1.00011
0.47,1.06662,1.00033,2.48629,1.4862,3.48652,1.00049
0.48,1.08277,1.00053,2.47555,1.4759,3.47441,0.999783
0.49,1.10342,0.99925,2.46461,1.46413,3.46599,1.00018
0.5,1.12227,1.00038,2.45349,1.4543,3.45295,0.999698
0.51,1.13442,1.0002,2.44222,1.44122,3.44178,1.00048
0.52,1.14863,1.00163,2.43078,1.43292,3.42988,1.0001
0.53,1.16559,1.00049,2.4192,1.41943,3.41942,1.00049
0.54,1.18492,1.00048,2.40748,1.40752,3.40619,0.99982
0.55,1.20222,0.999572,2.39553,1.39543,3.39653,1.00012
0.56,1.22264,1.00051,2.38339,1.38406,3.383,0.999978
0.57,1.23974,1.00067,2.37107,1.37081,3.37031,1.00042
0.58,1.25779,1.00128,2.35859,1.36012,3.35801,1.00022
0.59,1.27074,1.0005,2.34596,1.34626,3.34575,1.00024
0.6,1.28507,1.0002,2.33318,1.33261,3.3323,1.00005
0.61,1.29899,1.00014,2.32025,1.32086,3.32053,0.999975
0.62,1.31614,1.00051,2.30716,1.30755,3.30696,1.00022
0.63,1.32933,1.00098,2.29393,1.29402,3.29253,1.00024
0.64,1.34283,1.0005,2.28058,1.28117,3.28099,1.00041
0.65,1.35809,1.00076,2.26708,1.26774,3.26629,1.00003
0.66,1.37272,1.00012,2.25343,1.25293,3.25306,1.00019
0.67,1.38628,1.00065,2.23964,1.24073,3.23929,0.99993
0.68,1.40018,1.0005,2.2257,1.22568,3.22561,1.00046
0.69,1.41561,1.00145,2.21161,1.21262,3.21001,1.00014
0.7,1.43295,1.00041,2.19737,1.19785,3.19788,1.00042
0.71,1.45127,1.0004,2.18295,1.18341,3.18248,0.999935
0.72,1.46985,0.999893,2.16834,1.16796,3.16868,1.00026
0.73,1.48833,1.00094,2.15355,1.15467,3.1529,1.00005
0.74,1.50727,1.00092,2.13858,1.13898,3.1381,1.00048
0.75,1.52112,1.00142,2.12344,1.12458,3.12226,1.00026
0.76,1.5346,1.00051,2.10817,1.10844,3.10822,1.0004
0.77,1.54993,1.00044,2.09276,1.0931,3.09215,0.999971
0.78,1.56571,1.00016,2.07719,1.07743,3.07737,1.00013
0.79,1.57827,1.00079,2.06147,1.06204,3.06084,1.00019
0.8,1.59177,1.00127,2.04563,1.0463,3.0447,1.00046
0.81,1.60649,1.00141,2.02965,1.03094,3.02894,1.00041
0.82,1.62122,1.0007,2.01352,1.01386,3.01291,1.00022
0.83,1.63652,1.00002,1.99723,0.997,2.99727,1.00015
0.84,1.65064,1.00045,1.9808,0.981716,2.98091,1.00005
0.85,1.66512,1.00076,1.96422,0.964449,2.96368,1.00037
0.86,1.67657,1.00152,1.9475,0.948686,2.94639,1.00037
0.87,1.68857,1.00096,1.93067,0.931653,2.93089,1.00057
0.88,1.7017,1.00107,1.91372,0.914493,2.91255,1.0001
0.89,1.71598,1.00011,1.89663,0.896562,2.89678,1.00022
0.9,1.73098,1.0007,1.87938,0.880706,2.8794,1.00005
0.91,1.74266,1.00088,1.86201,0.862118,2.86134,1.0005
0.92,1.75337,1.00194,1.84453,0.846105,2.84288,1.00033
0.93,1.76191,1.00113,1.82697,0.828101,2.82696,1.00056
0.94,1.77362,1.00085,1.80929,0.809636,2.80819,1.00013
0.95,1.78627,1.0001,1.7915,0.791319,2.79161,1.00024
0.96,1.79889,1.00072,1.77357,0.774546,2.77329,1.0001
0.97,1.80898,1.00113,1.75552,0.755804,2.75447,1.00046
0.98,1.81996,1.00184,1.73738,0.738707,2.73586,1.00042
0.99,1.83049,1.00121,1.71913,0.720115,2.71873,1.00052
1,1.84189,1.00093,1.70078,0.701116,2.6997,1.00022
1.01,1.85153,1.00045,1.68232,0.682496,2.68199,1.0002
1.02,1.86335,1.00063,1.66374,0.664281,2.66355,1.00026
1.03,1.87149,1.00139,1.64506,0.64586,2.64387,1.0004
1.04,1.88132,1.00165,1.6263,0.627452,2.62519,1.00051
1.05,1.89096,1.00136,1.60745,0.608682,2.6067,1.00036
1.06,1.90077,1.00068,1.58849,0.588786,2.58819,1.00038
1.07,1.91094,1.00087,1.56943,0.570295,2.56891,1.00018
1.08,1.92092,1.00092,1.55027,0.550854,2.54982,1.0004
1.09,1.92738,1.00172,1.53103,0.532601,2.52984,1.00033
1.1,1.93299,1.00138,1.51173,0.512827,2.51132,1.00063
1.11,1.9405,1.00133,1.49236,0.493422,2.49149,1.00036
1.12,1.94843,1.00095,1.47292,0.473597,2.47249,1.0004
1.13,1.95735,1.00133,1.45339,0.454979,2.45263,1.00016
1.14,1.96319,1.00103,1.43379,0.434254,2.43322,1.00051
1.15,1.96778,1.00154,1.41413,0.415522,2.41338,1.00047
1.16,1.97148,1.00158,1.39443,0.3957,2.39371,1.00058
1.17,1.97788,1.00178,1.37469,0.37601,2.37309,1.00031
1.18,1.9801,1.00112,1.3549,0.355867,2.35448,1.00043
1.19,1.98379,1.00099,1.33508,0.336007,2.33486,1.00042
1.2,1.98524,1.00147,1.31523,0.315798,2.31379,1.00046
1.21,1.98559,1.00205,1.29538,0.297307,2.29409,1.00044
1.22,1.98171,1.00166,1.27554,0.277041,2.27485,1.00057
1.23,1.98067,1.0013,1.25573,0.256062,2.25474,1.00064
1.24,1.97952,1.00168,1.23593,0.237482,2.2348,1.00034
1.25,1.97585,1.0017,1.21616,0.21789,2.21521,1.00036
1.26,1.96621,1.00153,1.19644,0.197406,2.19541,1.00053
1.27,1.95855,1.00149,1.17682,0.177809,2.17648,1.00083
1.28,1.94606,1.00237,1.15729,0.15945,2.15558,1.00043
1.29,1.9317,1.00233,1.13791,0.139971,2.13634,1.00051
1.3,1.91957,1.00158,1.11866,0.12027,2.11827,1.00058
1.31,1.90244,1.00141,1.09954,0.100406,2.09911,1.00076
1.32,1.8841,1.00257,1.0806,0.0831676,2.07905,1.0005
1.33,1.85612,1.00326,1.06191,0.0652949,2.05997,1.00059
1.34,1.82595,1.00306,1.0435,0.0465566,2.04201,1.00078
1.35,1.78479,1.0032,1.02544,0.0296769,2.02529,1.00099
1.36,1.73497,1.00395,1.00783,0.0124462,2.00652,1.00098
1.37,1.664,1.00671,0.990807,-0,1.98876,1.00105
1.38,1.529,1.01582,0.974752,2.53972e-05,1.97191,1.00154
1.39,1.23061,1.02597,0.960791,2.47658e-05,1.95557,1.00317
1.4,0.743846,1.03698,0.950781,-0,1.9412,1.00649
1.41,0.15901,1.04465,0.946239,2.60702e-05,1.93041,1.00829
1.42,-0.394524,1.04122,0.947456,2.59247e-05,1.93529,1.00752
1.43,-0.89253,1.03168,0.953921,2.16584e-05,1.94738,1.00453
1.44,-1.25653,1.0227,0.964818,1.69394e-05,1.96026,1.00237
1.45,-1.46078,1.01394,0.978495,1.07268e-05,1.97583,1.00168
1.46,-1.56748,1.00555,0.993707,-0,1.99181,1.00143
1.47,-1.56589,1.00032,1.00947,0.00647678,2.00726,1.00071
1.48,-1.47722,0.99633,1.0247,0.0206887,2.02577,0.998859
1.49,-1.4103,0.994563,1.0391,0.0369709,2.04387,0.997992
1.5,-1.37423,0.998556,1.053,0.0525075,2.05438,0.999491
1.51,-1.34467,1.00528,1.06657,0.0690149,2.06205,1.00178
1.52,-1.37425,1.00787,1.0801,0.086663,2.07575,1.00237
1.53,-1.4402,1.00434,1.09419,0.0989433,2.09286,1.00128
1.54,-1.42998,0.998407,1.10861,0.105791,2.1082,0.999609
1.55,-1.36005,0.994995,1.12257,0.118209,2.12474,0.998242
1.56,-1.31162,0.996538,1.1359,0.135418,2.14011,0.998875
1.57,-1.29094,1.00285,1.14892,0.150601,2.14641,1.00075
1.58,-1.28302,1.00703,1.16177,0.165378,2.15605,1.00234
1.59,-1.31149,1.00548,1.17472,0.18016,2.17235,1.00156
1.6,-1.32642,0.999123,1.18796,0.187021,2.18858,0.999901
1.61,-1.28163,0.995146,1.20103,0.195963,2.20237,0.998335
1.62,-1.22659,0.996187,1.21357,0.211821,2.21696,0.998745
1.63,-1.21089,1.00204,1.22573,0.228197,2.22487,1.00037
1.64,-1.20754,1.00623,1.23782,0.240705,2.23282,1.00226
1.65,-1.21436,1.00548,1.24992,0.253878,2.24628,1.00166
1.66,-1.22089,0.999363,1.26211,0.262648,2.2637,0.999889
1.67,-1.2028,0.995338,1.27427,0.270193,2.27633,0.998391
1.68,-1.14954,0.996353,1.28603,0.282791,2.28767,0.998783
1.69,-1.12366,1.00154,1.29735,0.300098,2.29795,1.00046
1.7,-1.12034,1.00585,1.30855,0.312529,2.30477,1.00195
1.71,-1.12134,1.00498,1.31976,0.321985,2.31518,1.00156
1.72,-1.11763,0.999402,1.33097,0.331961,2.33259,0.999715
1.73,-1.09612,0.994959,1.34204,0.338958,2.34586,0.99839
1.74,-1.06222,0.99656,1.35287,0.348967,2.35349,0.998813
1.75,-1.03186,1.00185,1.36331,0.365492,2.36302,1.00061
1.76,-1.03161,1.00589,1.37361,0.37884,2.37077,1.00183
1.77,-1.03004,1.00431,1.38393,0.385029,2.37942,1.00149
1.78,-1.01846,0.998875,1.39419,0.393495,2.39495,0.999603
1.79,-0.996933,0.995104,1.40425,0.402221,2.40866,0.998308
1.8,-0.976715,0.997007,1.41415,0.410413,2.41439,0.998988
1.81,-0.947585,1.00237,1.42374,0.424885,2.42182,1.00083
1.82,-0.946848,1.00564,1.4332,0.438765,2.43116,1.00182
1.83,-0.932527,1.00359,1.44261,0.443885,2.43884,1.00105
1.84,-0.915417,0.998039,1.45185,0.449491,2.45214,0.999363
1.85,-0.885693,0.995015,1.46085,0.459094,2.46577,0.998336
1.86,-0.867364,0.997606,1.46959,0.467103,2.4704,0.999253
1.87,-0.831879,1.00333,1.47807,0.479496,2.475,1.00108
1.88,-0.826159,1.0061,1.48636,0.492317,2.48379,1.00181
1.89,-0.825246,1.00222,1.49462,0.49547,2.49278,1.00087
1.9,-0.810156,0.996834,1.50282,0.499578,2.5039,0.998987
1.91,-0.776785,0.995145,1.51074,0.508745,2.51507,0.99829
1.92,-0.763323,0.998772,1.51843,0.517904,2.51941,0.999524
1.93,-0.730518,1.00393,1.52588,0.527603,2.52268,1.00146
1.94,-0.723831,1.00553,1.53314,0.53789,2.53051,1.00182
1.95,-0.722888,1.0014,1.54038,0.541717,2.53969,1.00039
1.96,-0.707951,0.996109,1.54755,0.544026,2.54941,0.99879
1.97,-0.67713,0.995348,1.55448,0.551587,2.55772,0.998399
1.98,-0.664091,0.99938,1.56114,0.561321,2.56234,0.99989
1.99,-0.639689,1.00491,1.5677,0.570917,2.56394,1.0014
2,-0.629254,1.00501,1.57403,0.576761,2.57032,1.00177
2.01,-0.625309,1.00016,1.58033,0.580797,2.581,1.00026
2.02,-0.598098,0.995695,1.58644,0.583745,2.58905,0.998335
2.03,-0.590075,0.995404,1.59235,0.587746,2.5941,0.998567
2.04,-0.392511,0.998754,1.59724,0.599706,2.59979,0.998799
2.05,-0.312851,1.00072,1.60063,0.601338,2.60388,1.00199
2.06,-0.282423,1.00557,1.60352,0.604022,2.59405,1.00055
2.07,-0.284857,1.00017,1.60642,0.604763,2.60819,1.00189
2.08,-0.218983,1.00018,1.60872,0.613726,2.60984,0.998239
2.09,-0.155311,0.992878,1.61091,0.602657,2.61479,0.998904
2.1,-0.0742645,0.998994,1.61207,0.613651,2.61097,0.997655
2.11,-0.0962884,1.00082,1.61254,0.612354,2.61595,1.00262
2.12,-0.108685,1.0097,1.61369,0.621832,2.60638,1.0019
2.13,-0.0529386,1.00478,1.61454,0.616674,2.61022,1.00154
2.14,-0.020529,0.998721,1.61491,0.619765,2.6185,0.998089
2.15,-0.0020195,0.990628,1.61501,0.603704,2.6208,0.999098
2.16,0.0110078,0.999469,1.61494,0.613479,2.612,0.998731
