time,velocity,ratio,centerX,Xmax,Xmin,Ymax
0,0,1,2,1,3,1
0.01,0.0189862,1,1.99991,0.999911,2.9999,0.999998
0.02,0.0379609,1.00007,1.99962,0.999677,2.99957,1.00002
0.03,0.0568536,1.00012,1.99915,0.999237,2.99908,1.00004
0.04,0.0756173,1.00017,1.99849,0.998602,2.99838,1.00006
0.05,0.0941333,1.00022,1.99764,0.997789,2.99749,1.00007
0.06,0.112434,1.00021,1.9966,0.99674,2.99645,1.00007
0.07,0.130539,1.00021,1.99539,0.995538,2.99522,1.00006
0.08,0.148589,1.00016,1.994,0.994111,2.99386,1.00003
0.09,0.166923,1.00009,1.99242,0.992519,2.99232,0.999991
0.1,0.185665,1.00005,1.99066,0.990762,2.99061,0.999971
0.11,0.206779,0.999949,1.9887,0.988712,2.98882,1.00001
0.12,0.229221,0.999998,1.98652,0.98656,2.98673,1.00008
0.13,0.251909,1.00017,1.98411,0.984292,2.98418,1.00012
0.14,0.270365,1.00047,1.9815,0.981911,2.98123,1.00013
0.15,0.288355,1.0006,1.97871,0.979184,2.97816,1.00009
0.16,0.306399,1.00047,1.97574,0.976049,2.97539,1.00014
0.17,0.325485,1.00028,1.97258,0.972582,2.97241,1.00019
0.18,0.346962,1.00021,1.96922,0.969439,2.96925,1.00011
0.19,0.365683,1.00031,1.96565,0.966077,2.96557,1.00006
0.2,0.382985,1.00019,1.96191,0.962183,2.96167,0.999938
0.21,0.401306,1.00009,1.95799,0.958065,2.95789,1.00001
0.22,0.421535,0.999938,1.95388,0.953724,2.95409,1.00012
0.23,0.439362,1.00017,1.94957,0.949521,2.9494,1.00011
0.24,0.456524,1.00056,1.9451,0.945569,2.94451,1.00003
0.25,0.47475,1.00048,1.94044,0.941048,2.94022,1.00006
0.26,0.494222,1.00054,1.93559,0.935941,2.93549,1.00031
0.27,0.51073,1.00046,1.93057,0.9307,2.93031,1.00027
0.28,0.528542,1.00083,1.92538,0.926047,2.92459,1.0001
0.29,0.54697,1.00077,1.92,0.920731,2.91938,1.0001
0.3,0.562162,1.00029,1.91446,0.914305,2.91416,1.00021
0.31,0.580239,1.00023,1.90875,0.90896,2.90891,1.0002
0.32,0.597489,1.0004,1.90286,0.903508,2.90279,1.00004
0.33,0.613569,1.00054,1.8968,0.897095,2.89608,1.00003
0.34,0.631462,1.00026,1.89058,0.890611,2.89041,1.00016
0.35,0.646924,1.00046,1.88419,0.884446,2.8841,1.00028
0.36,0.664088,1.00073,1.87763,0.877888,2.87678,1.00018
0.37,0.680122,1.00091,1.87091,0.871833,2.87029,1.00014
0.38,0.696215,1.00097,1.86403,0.864948,2.8636,1.00029
0.39,0.712793,1.00057,1.85698,0.857091,2.85668,1.00037
0.4,0.728119,1.00099,1.84978,0.850458,2.84905,1.00029
0.41,0.744406,1.00089,1.84242,0.843284,2.84177,1.00013
0.42,0.760343,1.00083,1.83489,0.835268,2.83406,1.00023
0.43,0.777085,1.00051,1.8272,0.827445,2.82704,1.00031
0.44,0.793031,1.00054,1.81935,0.819934,2.81929,1.00022
0.45,0.809858,1.00096,1.81134,0.812065,2.81044,1.00015
0.46,0.825023,1.00072,1.80317,0.803696,2.80258,1.00016
0.47,0.841263,1.00092,1.79483,0.795486,2.79448,1.00041
0.48,0.85648,1.00095,1.78635,0.786755,2.78556,1.00035
0.49,0.872034,1.00129,1.7777,0.778592,2.77666,1.00033
0.5,0.887062,1.00143,1.76891,0.770307,2.76813,1.00035
0.51,0.901548,1.00102,1.75996,0.760588,2.75947,1.00046
0.52,0.916597,1.00118,1.75087,0.751483,2.75013,1.0005
0.53,0.931169,1.00103,1.74164,0.742527,2.74101,1.00027
0.54,0.946201,1.00132,1.73225,0.733149,2.73107,1.00028
0.55,0.96092,1.00092,1.72271,0.723245,2.72207,1.00034
0.56,0.975466,1.00088,1.71303,0.713756,2.71278,1.0004
0.57,0.990749,1.00135,1.7032,0.704312,2.70227,1.00032
0.58,1.00473,1.00121,1.69323,0.694028,2.69224,1.00031
0.59,1.01906,1.00143,1.6831,0.684345,2.68243,1.00047
0.6,1.03353,1.00136,1.67284,0.673578,2.67191,1.00053
0.61,1.04702,1.00152,1.66244,0.663233,2.66134,1.00057
0.62,1.06084,1.00183,1.6519,0.653537,2.65073,1.00042
0.63,1.07488,1.00171,1.64122,0.642548,2.64016,1.00052
0.64,1.08817,1.00153,1.63041,0.631262,2.62951,1.00065
0.65,1.10179,1.0016,1.61946,0.620859,2.61854,1.00044
0.66,1.11543,1.00175,1.60837,0.609617,2.60705,1.00046
0.67,1.12862,1.00143,1.59715,0.598016,2.59609,1.00047
0.68,1.14167,1.00148,1.5858,0.586973,2.58501,1.0005
0.69,1.15493,1.00152,1.57432,0.575451,2.57362,1.0006
0.7,1.16786,1.00178,1.56271,0.56394,2.5614,1.00051
0.71,1.18009,1.00217,1.55097,0.55272,2.54954,1.00058
0.72,1.19224,1.00184,1.53911,0.540456,2.53817,1.0007
0.73,1.20413,1.0022,1.52712,0.528511,2.52555,1.00072
0.74,1.21631,1.00223,1.51502,0.516588,2.51347,1.00067
0.75,1.22785,1.00226,1.5028,0.504589,2.50142,1.00067
0.76,1.23895,1.00222,1.49047,0.492222,2.48916,1.00069
0.77,1.25062,1.00179,1.47802,0.479356,2.47722,1.00072
0.78,1.26223,1.00216,1.46546,0.467066,2.46407,1.00066
0.79,1.27349,1.00224,1.45278,0.454295,2.45098,1.00057
0.8,1.28435,1.00215,1.43999,0.441658,2.43882,1.00073
0.81,1.29474,1.00222,1.4271,0.428873,2.42596,1.00076
0.82,1.30483,1.00233,1.4141,0.415677,2.41249,1.00074
0.83,1.3147,1.00268,1.401,0.403103,2.39929,1.00076
0.84,1.32376,1.00278,1.38781,0.390172,2.38625,1.00081
0.85,1.33288,1.00277,1.37452,0.376358,2.37285,1.001
0.86,1.34164,1.00281,1.36115,0.363095,2.35938,1.00095
0.87,1.35001,1.00306,1.34769,0.350162,2.34574,1.00085
0.88,1.35774,1.00284,1.33416,0.336416,2.33251,1.00088
0.89,1.36551,1.00263,1.32054,0.322679,2.31915,1.00086
0.9,1.37301,1.00283,1.30685,0.30911,2.30524,1.0009
0.91,1.38019,1.00288,1.29308,0.295276,2.29124,1.00086
0.92,1.38691,1.00322,1.27924,0.281868,2.27722,1.00089
0.93,1.39285,1.00314,1.26535,0.267875,2.26365,1.00103
0.94,1.39847,1.00326,1.25139,0.253784,2.24949,1.0011
0.95,1.40357,1.00358,1.23738,0.240282,2.23524,1.00105
0.96,1.40715,1.00361,1.22333,0.226533,2.22144,1.00106
0.97,1.40974,1.00383,1.20925,0.212388,2.2071,1.00117
0.98,1.41229,1.00383,1.19514,0.198161,2.19294,1.00121
0.99,1.41458,1.00405,1.181,0.184471,2.17883,1.00122
1,1.41555,1.00429,1.16685,0.170632,2.16439,1.00116
1.01,1.4158,1.00412,1.15269,0.156204,2.1504,1.0012
1.02,1.4154,1.00424,1.13854,0.142289,2.13643,1.0013
1.03,1.41391,1.00432,1.12439,0.128321,2.12221,1.00126
1.04,1.4111,1.00463,1.11027,0.114467,2.10778,1.00128
1.05,1.4065,1.00494,1.09618,0.100907,2.09373,1.00133
1.06,1.40018,1.00528,1.08215,0.0871094,2.07956,1.00148
1.07,1.39225,1.0057,1.06819,0.0736267,2.06548,1.0016
1.08,1.38193,1.00622,1.05431,0.0605891,2.05138,1.00159
1.09,1.36802,1.00691,1.04056,0.0478676,2.03748,1.00168
1.1,1.35084,1.00766,1.02697,0.0353643,2.02373,1.0018
1.11,1.32977,1.00866,1.01356,0.023518,2.01028,1.00198
1.12,1.30293,1.01061,1.0004,0.0134789,1.99675,1.00216
1.13,1.2666,1.01371,0.987547,0.00590324,1.98335,1.00228
1.14,1.21697,1.0176,0.975119,-0,1.97055,1.00262
1.15,1.14851,1.02455,0.963275,4.54714e-09,1.9582,1.00314
1.16,1.05463,1.03203,0.952235,3.05953e-07,1.94576,1.00404
1.17,0.92416,1.03964,0.942307,-0,1.9339,1.00528
1.18,0.756358,1.04814,0.933876,2.56358e-07,1.92236,1.00745
1.19,0.564792,1.0561,0.927251,2.32267e-07,1.91237,1.00983
1.2,0.348812,1.0633,0.922665,2.02639e-07,1.90306,1.01176
1.21,0.122147,1.06799,0.920302,4.09729e-07,1.89694,1.01295
1.22,-0.104717,1.06825,0.920215,4.95535e-08,1.89713,1.01331
1.23,-0.317618,1.0652,0.92232,-0,1.90164,1.01281
1.24,-0.513646,1.05907,0.926461,-0,1.90905,1.0109
1.25,-0.69922,1.05166,0.93255,-0,1.91719,1.00812
1.26,-0.846546,1.04253,0.940269,-0,1.93033,1.00621
1.27,-0.948374,1.03426,0.949241,1.77391e-07,1.94244,1.00449
1.28,-1.03595,1.02662,0.959165,1.27356e-06,1.95339,1.0027
1.29,-1.0907,1.01919,0.969832,-0,1.96606,1.00189
1.3,-1.11444,1.01233,0.980868,-0,1.97907,1.00174
1.31,-1.11331,1.00687,0.992017,-0,1.98926,1.00147
1.32,-1.09604,1.0004,1.00307,-0,2.00076,1.00078
1.33,-1.06505,0.998145,1.01388,0.00846673,2.01256,1.00019
1.34,-1.0263,0.99673,1.02435,0.0186874,2.02395,0.999352
1.35,-0.985985,0.994641,1.03439,0.0287173,2.03641,0.998466
1.36,-0.951283,0.994839,1.04408,0.0413945,2.0476,0.997925
1.37,-0.924063,0.9964,1.05344,0.0529356,2.05676,0.998307
1.38,-0.903969,0.99784,1.06258,0.0635683,2.06641,0.999257
1.39,-0.888405,1.00229,1.07154,0.0741554,2.07111,1.00076
1.4,-0.873442,1.00582,1.08034,0.084171,2.07643,1.00192
1.41,-0.862017,1.00885,1.08901,0.0935754,2.0817,1.00286
1.42,-0.856276,1.01034,1.0976,0.104351,2.09023,1.00321
1.43,-0.85808,1.0087,1.10616,0.113455,2.10169,1.00277
1.44,-0.860201,1.00669,1.11476,0.12185,2.11251,1.00199
1.45,-0.860283,1.00263,1.12336,0.126689,2.12252,1.00054
1.46,-0.846988,0.998792,1.13191,0.130892,2.13248,0.999587
1.47,-0.822387,0.995883,1.14027,0.135473,2.14122,0.998747
1.48,-0.788771,0.993656,1.14833,0.141859,2.1509,0.998146
1.49,-0.756415,0.994659,1.15604,0.151694,2.15866,0.998125
1.5,-0.73123,0.995832,1.16348,0.162107,2.1673,0.998415
1.51,-0.711836,0.999316,1.17068,0.172404,2.17313,0.999678
1.52,-0.696708,1.00267,1.17772,0.180779,2.17724,1.00089
1.53,-0.683094,1.00611,1.18462,0.188545,2.18015,1.00189
1.54,-0.671242,1.00833,1.19139,0.195745,2.18452,1.00267
1.55,-0.66248,1.0081,1.19806,0.202561,2.19168,1.00262
1.56,-0.654236,1.00658,1.20464,0.209326,2.20045,1.00211
1.57,-0.646503,1.00304,1.21114,0.214824,2.21061,1.00093
1.58,-0.637066,0.999467,1.21757,0.218523,2.21902,0.999713
1.59,-0.620506,0.996332,1.22386,0.221578,2.22646,0.998762
1.6,-0.594083,0.993982,1.22994,0.224105,2.23247,0.99814
1.61,-0.567016,0.99414,1.23574,0.229974,2.2379,0.998081
1.62,-0.538595,0.995196,1.24127,0.236949,2.2435,0.998457
1.63,-0.514792,0.998428,1.24653,0.247031,2.24885,0.999335
1.64,-0.500787,1.00173,1.2516,0.254283,2.25172,1.00044
1.65,-0.489292,1.00487,1.25655,0.260971,2.25449,1.00162
1.66,-0.47933,1.00707,1.2614,0.265922,2.25659,1.00237
1.67,-0.468039,1.00739,1.26613,0.269894,2.26005,1.00244
1.68,-0.457974,1.00615,1.27076,0.27329,2.26498,1.00196
1.69,-0.44523,1.00278,1.27527,0.277715,2.27383,1.00083
1.7,-0.433655,0.999361,1.27967,0.280433,2.2813,0.999792
1.71,-0.419671,0.99593,1.28394,0.282011,2.28771,0.99877
1.72,-0.399529,0.994323,1.28804,0.284176,2.29165,0.998037
1.73,-0.373197,0.994285,1.29191,0.286979,2.29455,0.998049
1.74,-0.34956,0.995313,1.29552,0.290514,2.29699,0.998536
1.75,-0.330796,0.998336,1.29891,0.29719,2.29968,0.999578
1.76,-0.315154,1.00134,1.30214,0.303851,2.30214,1.00049
1.77,-0.302896,1.00471,1.30522,0.309997,2.3031,1.00125
1.78,-0.293828,1.00646,1.30821,0.313549,2.30468,1.002
1.79,-0.28039,1.00623,1.31108,0.314819,2.30702,1.00231
1.8,-0.264714,1.00535,1.31381,0.31621,2.30892,1.00169
1.81,-0.247855,1.00249,1.31638,0.31735,2.31331,1.00047
1.82,-0.225468,0.99889,1.31874,0.318895,2.32017,0.999528
1.83,-0.205587,0.995583,1.3209,0.318844,2.32521,0.998753
1.84,-0.184401,0.993759,1.32285,0.319051,2.32781,0.998114
1.85,-0.165297,0.994597,1.3246,0.321183,2.32788,0.997928
1.86,-0.147287,0.996006,1.32616,0.322383,2.3275,0.998556
1.87,-0.121743,0.998494,1.32751,0.324563,2.32729,0.999857
1.88,-0.0995796,1.00203,1.32861,0.330036,2.32763,1.00083
1.89,-0.0876701,1.00492,1.32954,0.333889,2.32715,1.00153
1.9,-0.0815101,1.00684,1.33038,0.336475,2.32707,1.00211
1.91,-0.0736196,1.00644,1.33116,0.336175,2.32793,1.00229
1.92,-0.0620817,1.00481,1.33184,0.333826,2.32803,1.0019
1.93,-0.0452778,1.00247,1.33239,0.332453,2.32877,1.00062
1.94,-0.0256032,0.999038,1.33274,0.332306,2.33312,0.999444
1.95,-0.00420968,0.995804,1.33289,0.330552,2.33649,0.99876
1.96,0.0168073,0.993909,1.33283,0.329344,2.33798,0.998201
