time,velocity,ratio,centerX,Xmax,Xmin,Ymax
0,0,0.99998,1.1,0.1,2.1,0.99998
0.01,0.0155292,1.00005,1.09992,0.10002,2.0999,0.999988
0.02,0.0308869,1.00017,1.09969,0.0999387,2.09962,1.00001
0.03,0.0456475,1.00038,1.09931,0.0997955,2.09915,1.00006
0.04,0.0599758,1.00064,1.09878,0.0995286,2.09853,1.00014
0.05,0.0735741,1.00094,1.09811,0.0991178,2.09774,1.00025
0.06,0.0868278,1.00124,1.09731,0.0985289,2.09681,1.00037
0.07,0.0999903,1.00155,1.09638,0.0977902,2.09566,1.00049
0.08,0.112492,1.00186,1.09532,0.0969103,2.09434,1.00058
0.09,0.124742,1.00209,1.09413,0.0958375,2.09294,1.00064
0.1,0.13701,1.00226,1.09282,0.0946306,2.09146,1.00067
0.11,0.149321,1.00231,1.09139,0.0932512,2.08998,1.00067
0.12,0.161132,1.00225,1.08984,0.091714,2.0885,1.00064
0.13,0.172054,1.00207,1.08817,0.0899671,2.08701,1.00059
0.14,0.183602,1.00178,1.0864,0.0879156,2.08545,1.00055
0.15,0.195793,1.00158,1.0845,0.0859742,2.08377,1.00048
0.16,0.208874,1.00136,1.08248,0.0839848,2.08203,1.00038
0.17,0.2221,1.00118,1.08032,0.0817322,2.07998,1.0003
0.18,0.234412,1.00108,1.07804,0.0793139,2.07766,1.00025
0.19,0.246622,1.00095,1.07564,0.0767528,2.07534,1.00025
0.2,0.258839,1.001,1.07311,0.0741551,2.07259,1.00022
0.21,0.27104,1.00103,1.07046,0.0715989,2.07001,1.00023
0.22,0.283238,1.00119,1.06769,0.0689243,2.06717,1.00031
0.23,0.295776,1.00157,1.0648,0.0664969,2.0641,1.00037
0.24,0.307394,1.00173,1.06178,0.0634484,2.06099,1.0005
0.25,0.317911,1.00203,1.05865,0.0605675,2.05772,1.00061
0.26,0.327934,1.00249,1.05542,0.0578049,2.0541,1.00063
0.27,0.337938,1.00278,1.05209,0.0547795,2.05076,1.00076
0.28,0.347466,1.00316,1.04867,0.0519072,2.04722,1.00081
0.29,0.355791,1.00351,1.04515,0.0488059,2.04368,1.00094
0.3,0.363405,1.0038,1.04156,0.0452489,2.03965,1.00099
0.31,0.371325,1.00395,1.03788,0.0417119,2.03585,1.00101
0.32,0.379189,1.00392,1.03413,0.0380791,2.03238,1.00106
0.33,0.386388,1.00417,1.0303,0.0347015,2.02856,1.00109
0.34,0.39266,1.0044,1.02641,0.0311519,2.02452,1.00107
0.35,0.399113,1.00444,1.02245,0.0273838,2.02055,1.00101
0.36,0.405564,1.00455,1.01843,0.0237077,2.01651,1.00093
0.37,0.411007,1.00468,1.01435,0.0200166,2.01264,1.00098
0.38,0.415882,1.00503,1.01021,0.0166248,2.00869,1.00104
0.39,0.420134,1.00559,1.00603,0.0134074,2.00439,1.00106
0.4,0.423802,1.00625,1.00181,0.0102769,2.00007,1.00111
0.41,0.425684,1.00708,0.997565,0.00729853,1.9956,1.00119
0.42,0.425983,1.00832,0.993306,0.00475951,1.99085,1.00131
0.43,0.424991,1.00837,0.98905,-0,1.98639,1.00151
0.44,0.421544,1.01089,0.984817,9.69525e-08,1.98191,1.00175
0.45,0.415279,1.01357,0.980631,-0,1.97724,1.00203
0.46,0.406349,1.01633,0.976521,1.76071e-09,1.97253,1.00237
0.47,0.394358,1.01903,0.972514,1.48325e-08,1.9679,1.00268
0.48,0.378223,1.02162,0.968647,-0,1.96355,1.003
0.49,0.35693,1.02441,0.964967,9.26948e-09,1.95911,1.00346
0.5,0.331332,1.02731,0.961522,1.09268e-08,1.9548,1.00409
0.51,0.302056,1.03003,0.958352,-0,1.95093,1.00475
0.52,0.268684,1.03264,0.955494,5.25178e-09,1.94723,1.00539
0.53,0.231591,1.03529,0.952988,6.97062e-09,1.94341,1.006
0.54,0.191533,1.03762,0.95087,8.41277e-09,1.94003,1.00651
0.55,0.1498,1.03964,0.949161,9.71471e-09,1.93696,1.00687
0.56,0.107619,1.04089,0.947872,1.10431e-08,1.93512,1.00712
0.57,0.0647557,1.04152,0.947009,1.23472e-08,1.93428,1.0073
0.58,0.0216,1.04163,0.946576,3.09137e-09,1.93412,1.00732
0.59,-0.0210611,1.04112,0.946572,3.69679e-09,1.9347,1.00713
0.6,-0.0635113,1.04005,0.946994,-0,1.93608,1.00681
0.61,-0.105603,1.03868,0.947838,4.06756e-09,1.9378,1.00638
0.62,-0.146022,1.03717,0.949097,4.28638e-09,1.93975,1.00593
0.63,-0.182922,1.03542,0.950739,4.86538e-09,1.94212,1.00545
0.64,-0.218345,1.03354,0.952747,-0,1.94485,1.00504
0.65,-0.25043,1.03176,0.955092,5.5805e-09,1.94741,1.00463
0.66,-0.278564,1.02985,0.957738,6.10484e-09,1.95042,1.00432
0.67,-0.302277,1.02784,0.960643,6.71959e-09,1.95372,1.00405
0.68,-0.321279,1.02559,0.963762,7.51436e-09,1.95734,1.00372
0.69,-0.337509,1.02325,0.967056,8.62489e-09,1.9612,1.0034
0.7,-0.350291,1.02104,0.970496,-0,1.96498,1.00316
0.71,-0.359544,1.01867,0.974046,2.95181e-08,1.96896,1.00286
0.72,-0.365333,1.01606,0.977671,4.13295e-08,1.97333,1.00251
0.73,-0.368063,1.0133,0.981339,-0,1.97799,1.00215
0.74,-0.367326,1.01081,0.985018,2.81379e-07,1.9822,1.00181
0.75,-0.363102,1.00846,0.988671,-0,1.98597,1.00138
0.76,-0.355192,1.00587,0.992265,-0,1.9902,1.00094
0.77,-0.344106,1.00325,0.995763,0.000165813,1.99467,1.00049
0.78,-0.330201,1.00084,0.999135,-0,1.99856,1.00012
0.79,-0.313947,0.99842,1.00236,-0,2.00272,0.999779
0.8,-0.294894,0.996371,1.0054,0.000335419,2.00648,0.999431
0.81,-0.274089,0.994253,1.00825,-0,2.00981,0.999131
0.82,-0.252065,0.994893,1.01088,0.0049092,2.01299,0.998913
0.83,-0.229831,0.994549,1.01329,0.00697008,2.01549,0.998787
0.84,-0.207343,0.994606,1.01547,0.00940412,2.01772,0.998739
0.85,-0.185131,0.995115,1.01743,0.0119676,2.01935,0.998787
0.86,-0.163669,0.995719,1.01917,0.0145839,2.02091,0.998867
0.87,-0.143573,0.996672,1.02071,0.0173197,2.02204,0.999025
0.88,-0.124849,0.997972,1.02205,0.0201429,2.02286,0.999329
0.89,-0.107687,0.999305,1.02321,0.0227357,2.02357,0.999721
0.9,-0.0930063,1.00066,1.02421,0.0253175,2.02431,1.00016
0.91,-0.0803387,1.0021,1.02507,0.0275335,2.02458,1.00062
0.92,-0.0698639,1.00358,1.02582,0.0293005,2.02427,1.00106
0.93,-0.0609794,1.00482,1.02648,0.0307865,2.02398,1.0014
0.94,-0.0527952,1.00569,1.02705,0.0318029,2.02377,1.00165
0.95,-0.0451835,1.00626,1.02753,0.0325378,2.02376,1.00184
0.96,-0.0391449,1.00647,1.02795,0.0331396,2.02402,1.00188
0.97,-0.0332234,1.006,1.02832,0.0328192,2.02462,1.00188
0.98,-0.0271155,1.0052,1.02862,0.0322592,2.02522,1.00167
0.99,-0.0205822,1.00408,1.02886,0.031783,2.02626,1.00131
1,-0.013646,1.00286,1.02903,0.031416,2.02754,1.00091
1.01,-0.00606054,1.00174,1.02913,0.0308911,2.0283,1.00044
1.02,0.00252471,1.00046,1.02915,0.030061,2.02908,0.999972
