time,velocity,ratio,centerX,Xmax,Xmin,Ymax
0,0,1,2.75,1.75,3.75,1
0.01,0.019521,1,2.7499,1.74991,3.7499,1
0.02,0.0390115,1.00001,2.74961,1.74962,3.7496,1
0.03,0.0584529,1.00001,2.74913,1.74914,3.74912,1.00001
0.04,0.0778379,1.00002,2.74845,1.74847,3.74843,1
0.05,0.0971624,1.00004,2.74758,1.74761,3.74755,1.00001
0.06,0.116431,1.00008,2.74651,1.74658,3.74646,1.00002
0.07,0.135643,1.00012,2.74525,1.74535,3.74518,1.00003
0.08,0.154804,1.00015,2.7438,1.74393,3.74369,1.00003
0.09,0.173919,1.0002,2.74216,1.74233,3.74201,1.00004
0.1,0.193005,1.00027,2.74033,1.74053,3.74014,1.00008
0.11,0.212056,1.00037,2.7383,1.73858,3.73805,1.00011
0.12,0.231062,1.00047,2.73609,1.73643,3.73577,1.00014
0.13,0.249978,1.00056,2.73369,1.73411,3.73331,1.00016
0.14,0.268825,1.00064,2.7311,1.73158,3.73069,1.00019
0.15,0.287594,1.00072,2.72832,1.72885,3.72787,1.00023
0.16,0.306314,1.00087,2.72535,1.72597,3.72481,1.00029
0.17,0.325014,1.00108,2.72219,1.72292,3.72149,1.00037
0.18,0.343621,1.00131,2.71885,1.71972,3.71797,1.00043
0.19,0.36217,1.00153,2.71533,1.71634,3.71425,1.00049
0.2,0.380615,1.00173,2.71161,1.71278,3.71039,1.00053
0.21,0.399035,1.00196,2.70772,1.70901,3.70637,1.00064
0.22,0.417364,1.00223,2.70364,1.70506,3.70212,1.00075
0.23,0.435604,1.0025,2.69937,1.70096,3.69764,1.00084
0.24,0.453763,1.00281,2.69493,1.69674,3.69294,1.0009
0.25,0.4713,1.00317,2.69031,1.69236,3.6881,1.00103
0.26,0.489506,1.00355,2.6855,1.68782,3.68304,1.00116
0.27,0.507489,1.00397,2.68052,1.6831,3.67773,1.00127
0.28,0.525402,1.0044,2.67536,1.67825,3.67231,1.00142
0.29,0.543218,1.00476,2.67002,1.67308,3.66676,1.00158
0.3,0.560922,1.00519,2.6645,1.66782,3.6609,1.00172
0.31,0.578644,1.0057,2.6588,1.66244,3.65482,1.00187
0.32,0.596223,1.0062,2.65293,1.65694,3.64865,1.00203
0.33,0.613723,1.00667,2.64688,1.65117,3.64226,1.00219
0.34,0.631161,1.00715,2.64066,1.64522,3.63572,1.00237
0.35,0.647905,1.00764,2.63426,1.63916,3.62901,1.00252
0.36,0.664848,1.0082,2.6277,1.63288,3.62203,1.00273
0.37,0.682045,1.00874,2.62097,1.62653,3.61497,1.00291
0.38,0.69891,1.00928,2.61407,1.61999,3.6077,1.00308
0.39,0.715829,1.00991,2.60699,1.61338,3.6002,1.00325
0.4,0.731808,1.0104,2.59976,1.60648,3.59268,1.00343
0.41,0.748094,1.01097,2.59236,1.59938,3.58487,1.00364
0.42,0.764292,1.01152,2.5848,1.59223,3.57695,1.00379
0.43,0.780974,1.01207,2.57707,1.58478,3.56885,1.00401
0.44,0.797488,1.01258,2.56918,1.57727,3.56062,1.00415
0.45,0.813944,1.0132,2.56113,1.56954,3.5521,1.00437
0.46,0.830362,1.01372,2.55291,1.5617,3.54353,1.00451
0.47,0.846673,1.01435,2.54452,1.55376,3.53477,1.00472
0.48,0.862888,1.0148,2.53598,1.5455,3.52599,1.0049
0.49,0.879138,1.01542,2.52727,1.53717,3.51684,1.00509
0.5,0.895329,1.01591,2.5184,1.52864,3.5077,1.00527
0.51,0.911424,1.01649,2.50936,1.51996,3.49821,1.00544
0.52,0.927423,1.01703,2.50017,1.51118,3.48877,1.00564
0.53,0.943302,1.01756,2.49082,1.50219,3.47904,1.00578
0.54,0.959146,1.01809,2.48131,1.49303,3.46925,1.00599
0.55,0.974861,1.01863,2.47164,1.48374,3.45928,1.00617
0.56,0.990413,1.0192,2.46182,1.47423,3.44901,1.00635
0.57,1.00601,1.0198,2.45183,1.46467,3.43869,1.00655
0.58,1.02159,1.02034,2.4417,1.45483,3.42814,1.00672
0.59,1.03707,1.02095,2.43141,1.445,3.41747,1.0069
0.6,1.0524,1.02146,2.42096,1.43486,3.40677,1.00711
0.61,1.0677,1.02214,2.41036,1.42473,3.39568,1.0073
0.62,1.08293,1.02269,2.39961,1.41435,3.38461,1.00748
0.63,1.09794,1.02328,2.38871,1.40379,3.37334,1.0077
0.64,1.11258,1.02396,2.37765,1.39315,3.36176,1.00789
0.65,1.12705,1.02454,2.36646,1.38234,3.3502,1.00807
0.66,1.14163,1.02526,2.35512,1.37151,3.33843,1.00831
0.67,1.15638,1.02593,2.34363,1.36041,3.3265,1.00853
0.68,1.17068,1.02654,2.33199,1.34914,3.31448,1.00875
0.69,1.18514,1.02726,2.32021,1.33783,3.30222,1.00897
0.7,1.19972,1.02793,2.30829,1.32632,3.28991,1.00922
0.71,1.2141,1.02864,2.29622,1.31463,3.27733,1.00945
0.72,1.22824,1.0294,2.28401,1.30295,3.26464,1.00968
0.73,1.24259,1.03013,2.27166,1.2911,3.25183,1.00991
0.74,1.25665,1.03086,2.25917,1.27901,3.23886,1.01017
0.75,1.27058,1.03163,2.24653,1.26678,3.22572,1.01045
0.76,1.28438,1.0325,2.23376,1.25459,3.21238,1.01071
0.77,1.29839,1.03328,2.22085,1.24216,3.19895,1.01096
0.78,1.31206,1.03405,2.2078,1.22958,3.18542,1.01122
0.79,1.32551,1.03487,2.19461,1.21697,3.17176,1.01147
0.8,1.33892,1.03576,2.18129,1.20425,3.1579,1.01175
0.81,1.35208,1.03666,2.16783,1.19137,3.14387,1.01204
0.82,1.36527,1.03746,2.15425,1.17829,3.12981,1.01232
0.83,1.37826,1.03831,2.14053,1.16511,3.11559,1.0126
0.84,1.39121,1.03921,2.12669,1.15185,3.10119,1.01289
0.85,1.40406,1.04013,2.11271,1.13848,3.08666,1.01317
0.86,1.41674,1.04098,2.09861,1.12497,3.07209,1.01345
0.87,1.42931,1.04185,2.08438,1.11136,3.05738,1.01373
0.88,1.44183,1.04274,2.07003,1.09758,3.04251,1.01402
0.89,1.45416,1.04359,2.05555,1.0836,3.02752,1.01432
0.9,1.46624,1.04446,2.04095,1.06957,3.01242,1.01462
0.91,1.47908,1.0454,2.02622,1.05546,2.99712,1.0149
0.92,1.4916,1.04637,2.01137,1.04126,2.98168,1.0152
0.93,1.50352,1.0473,1.9964,1.02691,2.96615,1.01549
0.94,1.51535,1.04819,1.9813,1.01238,2.95055,1.01579
0.95,1.52719,1.04908,1.96609,0.997746,2.93484,1.01608
0.96,1.53881,1.04997,1.95076,0.982981,2.91897,1.01637
0.97,1.5503,1.05084,1.93532,0.9681,2.90302,1.01664
0.98,1.56152,1.05169,1.91976,0.953092,2.88696,1.01692
0.99,1.57262,1.05257,1.90409,0.938034,2.87083,1.0172
1,1.58376,1.05344,1.88831,0.92288,2.8546,1.01747
1.01,1.59478,1.05427,1.87242,0.907564,2.83829,1.01775
1.02,1.6057,1.0551,1.85642,0.892136,2.82185,1.01802
1.03,1.61619,1.05595,1.84031,0.876625,2.8053,1.0183
1.04,1.62669,1.05682,1.8241,0.861006,2.78862,1.01857
1.05,1.63705,1.05766,1.80778,0.84527,2.77186,1.01884
1.06,1.6473,1.0585,1.79136,0.829432,2.755,1.0191
1.07,1.65759,1.05936,1.77484,0.813498,2.73799,1.01937
1.08,1.66744,1.06026,1.75821,0.797501,2.7209,1.01965
1.09,1.67715,1.06112,1.74149,0.781384,2.70374,1.01993
1.1,1.68665,1.06199,1.72467,0.765192,2.68651,1.02021
1.11,1.69604,1.0629,1.70776,0.748938,2.66915,1.02049
1.12,1.70525,1.06386,1.69076,0.73265,2.65166,1.02078
1.13,1.71405,1.06482,1.67366,0.716256,2.63408,1.02107
1.14,1.72285,1.06577,1.65648,0.699767,2.61645,1.02137
1.15,1.73131,1.06675,1.63921,0.683215,2.59869,1.02166
1.16,1.7395,1.06778,1.62185,0.666603,2.58077,1.02195
1.17,1.74731,1.06882,1.60442,0.649913,2.56274,1.02224
1.18,1.75499,1.06985,1.58691,0.633137,2.54469,1.02254
1.19,1.76237,1.0709,1.56933,0.616323,2.5266,1.02286
1.2,1.76943,1.07197,1.55167,0.599451,2.50841,1.02318
1.21,1.77628,1.07307,1.53394,0.582514,2.49013,1.0235
1.22,1.78272,1.07415,1.51614,0.565532,2.47186,1.02384
1.23,1.78878,1.0753,1.49829,0.548558,2.45348,1.02418
1.24,1.7944,1.07649,1.48037,0.531545,2.43497,1.02451
1.25,1.79969,1.07767,1.4624,0.514449,2.41645,1.02487
1.26,1.80448,1.07888,1.44438,0.497335,2.39789,1.02523
1.27,1.80917,1.0802,1.42632,0.48028,2.37919,1.0256
1.28,1.81317,1.08151,1.4082,0.463216,2.36049,1.02596
1.29,1.81668,1.08286,1.39005,0.446132,2.34175,1.02635
1.3,1.81967,1.08427,1.37187,0.429063,2.32294,1.02673
1.31,1.82214,1.08569,1.35366,0.412039,2.3042,1.02715
1.32,1.82413,1.08712,1.33543,0.39502,2.28542,1.02754
1.33,1.82563,1.0887,1.31718,0.378098,2.2665,1.02795
1.34,1.82655,1.09033,1.29892,0.361259,2.2476,1.02837
1.35,1.82665,1.09204,1.28066,0.34443,2.22859,1.02879
1.36,1.82626,1.09375,1.26239,0.327662,2.2097,1.02924
1.37,1.82512,1.09553,1.24414,0.311095,2.1909,1.02969
1.38,1.82297,1.09739,1.2259,0.294646,2.17208,1.03014
1.39,1.82024,1.09932,1.20768,0.278242,2.15322,1.0306
1.4,1.81668,1.10138,1.1895,0.261948,2.13428,1.03108
1.41,1.81219,1.10352,1.17135,0.245806,2.11546,1.0316
1.42,1.8067,1.10582,1.15326,0.229958,2.09666,1.03212
1.43,1.80028,1.10826,1.13522,0.214463,2.07796,1.03262
1.44,1.79279,1.1108,1.11726,0.199149,2.05935,1.03316
1.45,1.78414,1.11349,1.09938,0.183955,2.04066,1.03372
1.46,1.77428,1.11638,1.08158,0.169024,2.02202,1.03432
1.47,1.76307,1.11947,1.0639,0.154521,2.00352,1.03495
1.48,1.75044,1.12283,1.04633,0.140501,1.98507,1.03557
1.49,1.73633,1.12645,1.0289,0.127126,1.9669,1.03621
1.5,1.72048,1.13052,1.01161,0.114404,1.94874,1.03687
1.51,1.70312,1.13495,0.994494,0.102116,1.93054,1.03759
1.52,1.68399,1.13965,0.97756,0.0902347,1.91256,1.0384
1.53,1.66296,1.14474,0.960826,0.0791206,1.89478,1.03923
1.54,1.63989,1.15028,0.944312,0.0688737,1.87724,1.04006
1.55,1.61464,1.15637,0.928041,0.0595642,1.85993,1.04094
1.56,1.58698,1.16338,0.912033,0.0514959,1.84264,1.04189
1.57,1.557,1.17126,0.896315,0.0445916,1.82544,1.04292
1.58,1.52428,1.1801,0.880909,0.0391206,1.80854,1.04405
1.59,1.48879,1.18955,0.865845,0.0346355,1.79206,1.04527
1.6,1.45033,1.19957,0.851152,0.030927,1.77585,1.04658
1.61,1.40886,1.21034,0.836858,0.0281801,1.75994,1.04801
1.62,1.36412,1.2215,0.822994,0.0257922,1.74425,1.04955
1.63,1.31566,1.23285,0.809597,0.0234051,1.72878,1.05124
1.64,1.26321,1.24451,0.796702,0.0211896,1.71359,1.0531
1.65,1.20638,1.25619,0.784353,0.0191819,1.69892,1.05503
1.66,1.14538,1.26839,0.772593,0.0173306,1.68449,1.05731
1.67,1.08,1.28115,0.761464,0.0157076,1.67059,1.06007
1.68,1.01051,1.2944,0.751009,0.0142883,1.65712,1.06324
1.69,0.937342,1.30787,0.741267,0.0129733,1.64412,1.06666
1.7,0.860662,1.32122,0.732273,0.0118614,1.6317,1.07008
1.71,0.780821,1.33419,0.724063,0.0107885,1.61995,1.07347
1.72,0.69859,1.34765,0.71666,0.00979828,1.60792,1.07685
1.73,0.614338,1.36025,0.710093,0.00883427,1.59723,1.0803
1.74,0.528545,1.37177,0.704374,0.0080434,1.58781,1.08354
1.75,0.442207,1.38291,0.699518,0.00722108,1.57871,1.08661
1.76,0.35603,1.39379,0.695524,0.00653636,1.56957,1.08927
1.77,0.270466,1.40439,0.692388,0.00573455,1.56021,1.09154
1.78,0.185671,1.41372,0.690104,0.005013,1.55155,1.09319
1.79,0.102489,1.4211,0.68866,0.00430896,1.54437,1.09429
1.8,0.0211705,1.42437,0.688039,0.00203828,1.53951,1.09497
1.81,-0.0579785,1.426,0.68822,-0,1.5361,1.09524
1.82,-0.135186,1.42626,0.689183,-0,1.5355,1.09501
1.83,-0.209594,1.42525,0.690905,-0,1.5354,1.09416
1.84,-0.281721,1.42205,0.69336,-0,1.53697,1.09282
1.85,-0.351916,1.41641,0.696523,0.000411358,1.54121,1.09121
1.86,-0.420841,1.41017,0.700382,0.00153176,1.54601,1.08899
1.87,-0.488914,1.40045,0.704925,0.00144329,1.55303,1.08646
1.88,-0.556165,1.38822,0.710145,0.00154127,1.56253,1.0835
1.89,-0.622408,1.37442,0.716033,0.00169687,1.57395,1.08047
1.9,-0.687225,1.35883,0.722577,0.001485,1.58658,1.07694
1.91,-0.750565,1.34247,0.729761,0.00131193,1.60034,1.07333
1.92,-0.812213,1.32706,0.737571,0.00199849,1.6143,1.06982
1.93,-0.871857,1.30874,0.745988,0.00196956,1.63075,1.06582
1.94,-0.928666,1.29118,0.754988,0.00173559,1.64644,1.0618
1.95,-0.982257,1.27343,0.764541,0.00188176,1.66296,1.05763
1.96,-1.03232,1.25619,0.774612,0.00184548,1.67909,1.05347
1.97,-1.07807,1.23682,0.785163,0.00208914,1.69851,1.04908
1.98,-1.11922,1.21825,0.79615,0.00187407,1.71723,1.04486
1.99,-1.15586,1.20112,0.807525,0.00217248,1.73531,1.04085
2,-1.18785,1.18402,0.819244,0.0024585,1.75431,1.03711
2.01,-1.21502,1.16813,0.831258,0.00260155,1.77204,1.03346
2.02,-1.23734,1.15348,0.84352,0.0024181,1.78856,1.03014
2.03,-1.25494,1.1403,0.855981,0.00234658,1.80375,1.02707
2.04,-1.26827,1.12752,0.868598,0.00262491,1.81945,1.02426
2.05,-1.27724,1.11524,0.881325,0.00251862,1.83446,1.02152
2.06,-1.28211,1.10366,0.894122,0.00277639,1.84945,1.01905
2.07,-1.28321,1.09219,0.906949,0.00312763,1.86523,1.01688
2.08,-1.28089,1.08111,0.919769,0.00342996,1.88088,1.01486
2.09,-1.27549,1.07042,0.932551,0.00337492,1.89637,1.01315
2.1,-1.26733,1.06026,0.945265,0.00310697,1.91159,1.01174
2.11,-1.2568,1.05067,0.957885,0.00333837,1.92701,1.01057
2.12,-1.24416,1.04112,0.970389,0.0030543,1.94236,1.00953
2.13,-1.22954,1.03167,0.982757,0.00264564,1.95766,1.00847
2.14,-1.21321,1.02249,0.99497,0.00221557,1.97279,1.00745
2.15,-1.1953,1.01362,1.00701,0.00177934,1.98752,1.00639
2.16,-1.17629,1.00484,1.01887,0.00106762,2.00207,1.00534
2.17,-1.15593,0.996522,1.03053,0.000860943,2.01641,1.00427
2.18,-1.13458,0.988575,1.04198,0.000743786,2.03025,1.00316
2.19,-1.11253,0.984621,1.05322,0.0082841,2.04385,1.00213
2.2,-1.08999,0.985559,1.06423,0.0253112,2.05694,1.00115
2.21,-1.06697,0.988352,1.07501,0.045304,2.06928,1.0002
2.22,-1.04375,0.991107,1.08556,0.0651311,2.0816,0.999268
2.23,-1.02062,0.993473,1.09588,0.0833102,2.09325,0.998408
2.24,-0.998125,0.994926,1.10598,0.0991584,2.10443,0.997549
2.25,-0.976352,0.995794,1.11585,0.113628,2.11544,0.996697
2.26,-0.955272,0.996252,1.1255,0.127042,2.1263,0.995883
2.27,-0.934818,0.996769,1.13495,0.139509,2.13644,0.995238
2.28,-0.914596,0.997862,1.1442,0.151754,2.1462,0.995093
2.29,-0.8946,0.998073,1.15324,0.163534,2.15595,0.994289
2.3,-0.874789,0.997768,1.16209,0.174743,2.16518,0.992999
2.31,-0.854905,0.998151,1.17074,0.185569,2.17404,0.992399
2.32,-0.835031,1.00026,1.17919,0.196394,2.18228,0.993205
2.33,-0.815295,1.0034,1.18744,0.20657,2.19058,0.995375
2.34,-0.795727,1.00771,1.19549,0.21652,2.19757,0.998165
2.35,-0.776545,1.01179,1.20336,0.226336,2.2053,1.00114
2.36,-0.757295,1.0145,1.21102,0.235785,2.21516,1.00404
2.37,-0.738277,1.01917,1.2185,0.24505,2.22047,1.00664
2.38,-0.719656,1.02459,1.22579,0.253861,2.22328,1.00893
2.39,-0.701317,1.0278,1.2329,0.262433,2.22951,1.01088
2.4,-0.68299,1.02848,1.23982,0.270723,2.23976,1.01256
2.41,-0.665319,1.02836,1.24656,0.278499,2.25044,1.01394
2.42,-0.647791,1.03002,1.25313,0.285897,2.25668,1.01497
2.43,-0.630641,1.03461,1.25952,0.292696,2.25674,1.01601
2.44,-0.614346,1.04091,1.26575,0.299215,2.25259,1.01665
2.45,-0.599229,1.04828,1.27181,0.305282,2.24538,1.01688
2.46,-0.584679,1.05514,1.27774,0.311071,2.23933,1.01729
2.47,-0.569853,1.06066,1.28351,0.316198,2.23539,1.0178
2.48,-0.554484,1.06404,1.28913,0.321234,2.2346,1.01794
2.49,-0.538554,1.06516,1.2946,0.326233,2.23674,1.0175
2.5,-0.522518,1.06381,1.2999,0.330131,2.24157,1.0167
2.51,-0.506602,1.06183,1.30505,0.334264,2.24818,1.01612
2.52,-0.491321,1.05985,1.31004,0.339451,2.25659,1.01594
2.53,-0.476827,1.05676,1.31488,0.342522,2.26579,1.01621
2.54,-0.463042,1.05253,1.31958,0.344144,2.27596,1.01664
2.55,-0.450025,1.04863,1.32414,0.347054,2.28627,1.01676
2.56,-0.43774,1.04502,1.32858,0.351647,2.29659,1.01626
2.57,-0.425927,1.04065,1.3329,0.356069,2.30693,1.01508
2.58,-0.414352,1.03441,1.3371,0.357813,2.31695,1.01327
2.59,-0.402669,1.02666,1.34119,0.357411,2.32671,1.0109
2.6,-0.390707,1.01865,1.34516,0.356446,2.33586,1.00817
2.61,-0.37836,1.01162,1.349,0.356785,2.34454,1.00543
2.62,-0.365439,1.00629,1.35272,0.360067,2.35278,1.00262
2.63,-0.35217,1.00216,1.35631,0.365377,2.36059,0.999765
2.64,-0.338366,0.998656,1.35977,0.370914,2.36778,0.997091
2.65,-0.32418,0.995051,1.36308,0.374864,2.37453,0.994883
2.66,-0.309363,0.990773,1.36625,0.376176,2.38098,0.993152
2.67,-0.293072,0.985739,1.36926,0.373964,2.38616,0.991749
2.68,-0.275795,0.980042,1.37211,0.369631,2.39088,0.990454
2.69,-0.257264,0.973416,1.37478,0.363408,2.39592,0.989239
2.7,-0.237538,0.967767,1.37725,0.357611,2.39982,0.988193
2.71,-0.217004,0.963429,1.37953,0.352312,2.40219,0.987455
2.72,-0.196059,0.960296,1.3816,0.347681,2.40382,0.98725
2.73,-0.174932,0.957934,1.38345,0.344311,2.40612,0.987537
2.74,-0.15354,0.956683,1.3851,0.342757,2.40854,0.988149
2.75,-0.132087,0.956785,1.38653,0.342875,2.40968,0.988745
2.76,-0.110571,0.958401,1.38774,0.344682,2.40888,0.989166
2.77,-0.0891057,0.960849,1.38874,0.347963,2.40743,0.989417
2.78,-0.0676389,0.963351,1.38953,0.352221,2.4061,0.989303
2.79,-0.0462323,0.965625,1.3901,0.357209,2.40589,0.989129
2.8,-0.0252202,0.967892,1.39046,0.362634,2.40669,0.989212
2.81,-0.00453487,0.97073,1.39061,0.368026,2.40688,0.98959
2.82,0.0157958,0.974711,1.39055,0.373546,2.40532,0.990196
