time,velocity,ratio,centerX,Xmax,Xmin,Ymax
0,0,0.99998,1.1,0.1,2.1,0.99998
0.01,0.0154924,1.00003,1.09992,0.099987,2.09991,0.999989
0.02,0.0309609,1.00017,1.09969,0.0999448,2.09964,1.00001
0.03,0.0461053,1.00041,1.09931,0.0998795,2.09918,1.00006
0.04,0.0611324,1.00071,1.09878,0.0997432,2.09856,1.00012
0.05,0.0756438,1.00112,1.09809,0.099577,2.09775,1.0002
0.06,0.0900914,1.00161,1.09727,0.0993509,2.09677,1.00031
0.07,0.104057,1.00215,1.0963,0.0990215,2.09561,1.00045
0.08,0.117846,1.00276,1.09519,0.0985794,2.09429,1.00061
0.09,0.131733,1.00342,1.09394,0.0980009,2.09279,1.0008
0.1,0.144821,1.00414,1.09256,0.0973097,2.0911,1.00102
0.11,0.157957,1.00489,1.09105,0.0964957,2.08927,1.00126
0.12,0.171205,1.0057,1.08941,0.095548,2.08724,1.00152
0.13,0.183807,1.00653,1.08763,0.0944592,2.08505,1.0018
0.14,0.196625,1.00741,1.08573,0.0932321,2.08269,1.0021
0.15,0.209533,1.00832,1.0837,0.0918903,2.08017,1.00241
0.16,0.221878,1.00925,1.08154,0.0904283,2.07746,1.0027
0.17,0.233514,1.01019,1.07927,0.0888333,2.07457,1.00298
0.18,0.245282,1.0111,1.07687,0.0871275,2.07161,1.00325
0.19,0.257039,1.01202,1.07436,0.0852546,2.06845,1.00352
0.2,0.268448,1.01297,1.07174,0.0832619,2.06512,1.00378
0.21,0.279861,1.01392,1.06899,0.0811682,2.06167,1.00404
0.22,0.291152,1.01485,1.06614,0.0789613,2.05813,1.00428
0.23,0.302219,1.01572,1.06317,0.0766052,2.0545,1.00449
0.24,0.313009,1.0165,1.0601,0.0741379,2.0509,1.00469
0.25,0.323508,1.01725,1.05692,0.0716516,2.04729,1.00486
0.26,0.33399,1.01797,1.05363,0.0690119,2.04364,1.00506
0.27,0.344174,1.01863,1.05024,0.0662708,2.03996,1.00523
0.28,0.354303,1.01925,1.04675,0.0634781,2.03624,1.00537
0.29,0.363678,1.0198,1.04316,0.0605894,2.03254,1.00549
0.3,0.373227,1.0203,1.03948,0.0576164,2.02887,1.00564
0.31,0.382112,1.02084,1.0357,0.0546418,2.02513,1.00578
0.32,0.391295,1.0214,1.03183,0.0516397,2.02126,1.00588
0.33,0.400087,1.02192,1.02788,0.0485666,2.01731,1.00595
0.34,0.408542,1.02239,1.02383,0.0453953,2.01346,1.00606
0.35,0.416909,1.02291,1.01971,0.042234,2.00943,1.00614
0.36,0.424925,1.02354,1.0155,0.0391738,2.00527,1.00619
0.37,0.432459,1.02425,1.01121,0.036188,2.00101,1.00624
0.38,0.439844,1.02506,1.00685,0.0332333,1.99667,1.00632
0.39,0.446854,1.0259,1.00242,0.0302581,1.99217,1.00636
0.4,0.45335,1.02691,0.997917,0.0274194,1.98749,1.00641
0.41,0.459512,1.02804,0.993353,0.0247435,1.98287,1.00652
0.42,0.465306,1.02935,0.98873,0.0221813,1.97804,1.00663
0.43,0.470422,1.03082,0.984052,0.0198308,1.97309,1.00673
0.44,0.475105,1.03257,0.979325,0.0177018,1.96797,1.00689
0.45,0.479357,1.03445,0.974554,0.0158066,1.96287,1.00707
0.46,0.482978,1.03665,0.969742,0.0142001,1.95752,1.00726
0.47,0.48589,1.03903,0.964899,0.0127278,1.95213,1.00755
0.48,0.488311,1.04154,0.960028,0.01146,1.94675,1.00784
0.49,0.490032,1.04425,0.955137,0.0103613,1.94127,1.00818
0.5,0.490989,1.04729,0.950232,0.00941071,1.93553,1.00861
0.51,0.491221,1.05032,0.945321,0.00847966,1.92989,1.00905
0.52,0.490436,1.05355,0.940412,0.00773831,1.9242,1.00954
0.53,0.488902,1.05698,0.935515,0.00700679,1.91834,1.01012
0.54,0.486451,1.06039,0.930638,0.00630339,1.91259,1.01071
0.55,0.482865,1.06401,0.925791,0.00571898,1.90676,1.01136
0.56,0.478313,1.06777,0.920985,0.0050608,1.90078,1.01209
0.57,0.472683,1.07161,0.916229,0.00450652,1.89484,1.01285
0.58,0.465987,1.07562,0.911535,0.00407399,1.88898,1.01372
0.59,0.458305,1.07958,0.906913,0.00318982,1.88294,1.01467
0.6,0.44952,1.08364,0.902372,0.00241961,1.87693,1.01564
0.61,0.43967,1.08775,0.897925,0.00162403,1.871,1.01671
0.62,0.428809,1.09215,0.893582,0.00119729,1.86501,1.01778
0.63,0.416985,1.09629,0.889351,0.000497887,1.85919,1.01883
0.64,0.404178,1.10085,0.885244,0.000261261,1.85333,1.01998
0.65,0.390501,1.1053,0.88127,6.49646e-05,1.84764,1.02106
0.66,0.375909,1.10979,0.877436,1.50519e-05,1.8421,1.02216
0.67,0.360293,1.11445,0.873754,0.000195073,1.83651,1.02325
0.68,0.344198,1.11899,0.87023,0.00024923,1.83096,1.02427
0.69,0.327451,1.12313,0.866871,3.35178e-07,1.8256,1.02519
0.7,0.309962,1.12726,0.863682,3.80973e-08,1.82047,1.02607
0.71,0.291859,1.13118,0.860671,2.69302e-08,1.81568,1.02693
0.72,0.273233,1.13484,0.857845,2.11351e-08,1.8112,1.02771
0.73,0.254194,1.1382,0.855206,9.69938e-09,1.80718,1.02847
0.74,0.235021,1.14124,0.852759,1.72287e-08,1.80349,1.02911
0.75,0.215215,1.14391,0.850506,6.1577e-09,1.80012,1.02959
0.76,0.195105,1.14634,0.848452,6.74118e-09,1.79707,1.03003
0.77,0.174314,1.14836,0.846603,5.21017e-09,1.79461,1.03043
0.78,0.153172,1.14967,0.844964,-0,1.79302,1.03069
0.79,0.131884,1.15078,0.843538,6.06971e-09,1.79165,1.0309
0.8,0.110317,1.15167,0.842325,4.14741e-09,1.79056,1.03107
0.81,0.0888255,1.15195,0.841327,4.3055e-09,1.7903,1.03116
0.82,0.0671,1.15223,0.840546,4.57666e-09,1.78979,1.03112
0.83,0.045128,1.15205,0.839983,-0,1.78987,1.03101
0.84,0.0230915,1.1514,0.83964,4.93816e-09,1.79052,1.0308
0.85,0.0010059,1.15073,0.839518,5.06619e-09,1.79112,1.03055
0.86,-0.0209602,1.14977,0.839617,-0,1.79197,1.03018
0.87,-0.0421397,1.1484,0.83993,5.30175e-09,1.79328,1.0297
0.88,-0.0627702,1.14669,0.840453,5.40528e-09,1.79508,1.0292
0.89,-0.0833557,1.14493,0.841181,5.49489e-09,1.79679,1.0286
0.9,-0.103379,1.14332,0.842113,3.70401e-09,1.79844,1.02809
0.91,-0.123401,1.14117,0.843245,3.76748e-09,1.801,1.02763
0.92,-0.143087,1.13902,0.844576,3.82958e-09,1.80353,1.02713
0.93,-0.162027,1.13687,0.846099,3.88588e-09,1.8059,1.02654
0.94,-0.180433,1.13481,0.84781,3.93612e-09,1.80809,1.02593
0.95,-0.197994,1.13266,0.849701,3.98483e-09,1.8104,1.02528
0.96,-0.214764,1.1304,0.851764,4.02945e-09,1.81283,1.02461
0.97,-0.23078,1.12797,0.85399,4.06536e-09,1.81556,1.02395
0.98,-0.246022,1.12554,0.856372,4.07612e-09,1.81853,1.02342
0.99,-0.260272,1.1229,0.858903,4.07033e-09,1.82181,1.02285
1,-0.27352,1.12017,0.861571,4.07623e-09,1.8252,1.02226
1.01,-0.285778,1.11746,0.864366,4.01271e-09,1.82858,1.02168
1.02,-0.297053,1.11468,0.867279,3.97337e-09,1.83218,1.02114
1.03,-0.307438,1.11184,0.8703,3.80014e-09,1.83593,1.02063
1.04,-0.317,1.10893,0.873421,-0,1.83974,1.02007
1.05,-0.325759,1.10595,0.876634,-0,1.84381,1.01958
1.06,-0.333632,1.10277,0.87993,7.52328e-09,1.84821,1.01907
1.07,-0.340714,1.09971,0.883301,2.66146e-06,1.85239,1.01854
1.08,-0.346786,1.09659,0.886738,4.31732e-09,1.85659,1.01796
1.09,-0.351838,1.09339,0.89023,2.64258e-06,1.86101,1.01741
1.1,-0.356052,1.09009,0.893768,2.16921e-08,1.86559,1.01683
1.11,-0.359514,1.08684,0.897345,2.60732e-06,1.87002,1.01621
1.12,-0.362144,1.08345,0.900953,3.81944e-06,1.87463,1.01553
1.13,-0.364146,1.08006,0.904583,-0,1.87934,1.0149
1.14,-0.365368,1.07665,0.90823,6.69057e-07,1.88389,1.01414
1.15,-0.365847,1.07309,0.911885,-0,1.88878,1.01341
1.16,-0.365471,1.06957,0.915541,-0,1.89372,1.01273
1.17,-0.364235,1.06637,0.91919,0.000474183,1.8986,1.01205
1.18,-0.362237,1.06277,0.922822,-0,1.90322,1.01134
1.19,-0.359532,1.05939,0.92643,-0,1.90795,1.01063
1.2,-0.356037,1.05621,0.930007,-0,1.91236,1.00992
1.21,-0.351805,1.05285,0.933546,-0,1.91714,1.00923
1.22,-0.346867,1.04965,0.937039,-0,1.92161,1.00851
1.23,-0.341314,1.04637,0.94048,-0,1.92632,1.00783
1.24,-0.335043,1.0431,0.943861,-0,1.9311,1.00717
1.25,-0.328042,1.03997,0.947176,4.47202e-05,1.93568,1.0065
1.26,-0.320354,1.03699,0.950418,-0,1.93991,1.00583
1.27,-0.312063,1.03402,0.953579,-0,1.9443,1.00523
1.28,-0.303198,1.03134,0.956655,6.89781e-05,1.94838,1.00469
1.29,-0.293811,1.02866,0.95964,-0,1.95234,1.00415
1.3,-0.283979,1.02614,0.962528,0.000188831,1.95626,1.0036
1.31,-0.273557,1.02361,0.965316,-0,1.95997,1.00313
1.32,-0.26278,1.02133,0.967997,0.000277485,1.96373,1.00267
1.33,-0.251722,1.01909,0.970569,2.48945e-05,1.96698,1.00225
1.34,-0.240257,1.01709,0.973028,0.000157258,1.97028,1.00189
1.35,-0.228272,1.01522,0.975371,0.000296214,1.97329,1.00151
1.36,-0.215824,1.01334,0.977591,-0,1.97607,1.00122
1.37,-0.203134,1.01182,0.979686,1.78929e-05,1.97859,1.00098
1.38,-0.190104,1.01079,0.981652,0.000519359,1.98079,1.00082
1.39,-0.176968,1.00934,0.983487,0.000330108,1.98318,1.00068
1.4,-0.163624,1.00812,0.985189,7.09557e-05,1.98502,1.00053
1.41,-0.150137,1.00742,0.986758,0.000654167,1.98676,1.00042
1.42,-0.136508,1.0063,0.988191,0.00013616,1.98831,1.00035
1.43,-0.122823,1.00603,0.989487,0.000761062,1.98939,1.00031
1.44,-0.109128,1.00532,0.990647,0.000490758,1.99055,1.00032
1.45,-0.095369,1.00481,0.991669,0.0003287,1.9915,1.00037
1.46,-0.0816736,1.00455,0.992555,0.000177653,1.99205,1.00047
1.47,-0.0678464,1.00438,0.993302,1.52989e-05,1.99243,1.00057
1.48,-0.0540778,1.00449,0.993912,2.68328e-05,1.99251,1.00072
1.49,-0.0404702,1.0047,0.994385,0.000173861,1.99258,1.00089
1.5,-0.0269535,1.00501,0.994721,0.000480392,1.99259,1.00105
1.51,-0.0135234,1.0051,0.994924,0.000390278,1.99264,1.00121
1.52,-0.000452202,1.00549,0.994994,0.000473484,1.9924,1.00143
1.53,0.0124385,1.00597,0.994933,0.000715547,1.99212,1.00165
