time,velocity,ratio,centerX,Xmax,Xmin,Ymax
0,0,1,1.5,0.5,2.5,1
0.01,0.0178376,0.999995,1.49991,0.49991,2.49993,1
0.02,0.0356285,1.00006,1.49964,0.49971,2.49962,1.00001
0.03,0.0533286,1.00016,1.4992,0.499359,2.49912,1.00004
0.04,0.0706855,1.00026,1.49858,0.498822,2.49845,1.00007
0.05,0.0879057,1.00035,1.49779,0.498081,2.49761,1.00011
0.06,0.104937,1.00047,1.49682,0.497201,2.49656,1.00015
0.07,0.121776,1.00058,1.49569,0.496134,2.49534,1.00018
0.08,0.138181,1.00067,1.49439,0.494879,2.49396,1.00021
0.09,0.154985,1.00072,1.49293,0.493455,2.49242,1.0002
0.1,0.171883,1.00077,1.49129,0.491867,2.49074,1.00021
0.11,0.189243,1.00078,1.48949,0.490106,2.48897,1.00021
0.12,0.206519,1.00066,1.48751,0.488038,2.48717,1.00023
0.13,0.22451,1.00058,1.48536,0.485819,2.48518,1.00026
0.14,0.241491,1.00057,1.48302,0.483483,2.48288,1.00027
0.15,0.257673,1.00058,1.48053,0.480989,2.48031,1.00024
0.16,0.274345,1.00065,1.47787,0.47842,2.47733,1.0001
0.17,0.290793,1.0006,1.47504,0.475582,2.47456,1.00009
0.18,0.307792,1.00058,1.47205,0.472624,2.47166,1.0001
0.19,0.325202,1.00046,1.46889,0.469275,2.46872,1.00018
0.2,0.341027,1.00031,1.46556,0.465625,2.46553,1.00027
0.21,0.357334,1.00053,1.46207,0.462283,2.46168,1.00023
0.22,0.373676,1.00066,1.45841,0.45884,2.45788,1.00018
0.23,0.390184,1.00091,1.45459,0.455562,2.454,1.00013
0.24,0.405891,1.00102,1.45061,0.451745,2.45004,1.00016
0.25,0.421398,1.00103,1.44648,0.447299,2.44587,1.00032
0.26,0.437339,1.00103,1.44218,0.442781,2.44152,1.0004
0.27,0.453312,1.00101,1.43773,0.438397,2.43729,1.00045
0.28,0.46798,1.00118,1.43313,0.434038,2.43261,1.00046
0.29,0.483142,1.00154,1.42837,0.429632,2.42733,1.00038
0.3,0.498699,1.0016,1.42346,0.424657,2.42221,1.00037
0.31,0.5138,1.00144,1.4184,0.419428,2.41727,1.00036
0.32,0.528729,1.00143,1.41319,0.414226,2.41234,1.00049
0.33,0.544305,1.00138,1.40783,0.408893,2.40727,1.00056
0.34,0.559213,1.00131,1.40231,0.403357,2.40178,1.00052
0.35,0.574095,1.00134,1.39664,0.397573,2.3958,1.00046
0.36,0.589136,1.00173,1.39083,0.39217,2.38953,1.00041
0.37,0.603471,1.00164,1.38487,0.386322,2.38385,1.0004
0.38,0.618099,1.00162,1.37876,0.380211,2.37782,1.00042
0.39,0.632404,1.00165,1.37251,0.373784,2.37157,1.00054
0.4,0.646538,1.00163,1.36611,0.367051,2.36513,1.00067
0.41,0.660989,1.00192,1.35958,0.360866,2.35829,1.00063
0.42,0.674879,1.00184,1.3529,0.354316,2.35182,1.00059
0.43,0.688464,1.00227,1.34608,0.347974,2.34468,1.00062
0.44,0.701546,1.00255,1.33913,0.341376,2.33755,1.00063
0.45,0.714927,1.00242,1.33205,0.333829,2.33056,1.00078
0.46,0.728087,1.00247,1.32483,0.326738,2.32341,1.0008
0.47,0.741133,1.00255,1.31749,0.319389,2.3162,1.00096
0.48,0.753824,1.00283,1.31002,0.312183,2.30838,1.00093
0.49,0.766483,1.00298,1.30241,0.304781,2.3005,1.00083
0.5,0.778897,1.00294,1.29469,0.296853,2.2927,1.00086
0.51,0.790937,1.00321,1.28684,0.289404,2.28469,1.00085
0.52,0.803069,1.00306,1.27887,0.281345,2.27721,1.00098
0.53,0.815065,1.00296,1.27078,0.273211,2.2693,1.001
0.54,0.826745,1.00311,1.26257,0.264965,2.26081,1.00102
0.55,0.838453,1.00328,1.25425,0.256815,2.25239,1.00106
0.56,0.84973,1.00354,1.2458,0.248716,2.24355,1.00095
0.57,0.860661,1.00352,1.23725,0.240397,2.23536,1.00099
0.58,0.87107,1.00371,1.22859,0.231754,2.22644,1.00104
0.59,0.881287,1.00398,1.21983,0.223147,2.21759,1.00119
0.6,0.891425,1.00379,1.21097,0.213835,2.20881,1.00127
0.61,0.901537,1.00409,1.202,0.205254,2.19973,1.00131
0.62,0.910913,1.00432,1.19294,0.196503,2.19056,1.00133
0.63,0.919718,1.00478,1.18379,0.187835,2.18104,1.00136
0.64,0.928191,1.00493,1.17455,0.178795,2.17168,1.00136
0.65,0.936063,1.00497,1.16523,0.169513,2.16251,1.00145
0.66,0.943876,1.00528,1.15583,0.160313,2.15297,1.00158
0.67,0.95116,1.00536,1.14636,0.151068,2.14376,1.00169
0.68,0.958095,1.00563,1.13681,0.141669,2.13387,1.00171
0.69,0.964556,1.00589,1.1272,0.132323,2.12394,1.00167
0.7,0.970292,1.00622,1.11752,0.122993,2.11403,1.00171
0.71,0.975475,1.00645,1.1078,0.113649,2.10428,1.00174
0.72,0.979914,1.00665,1.09802,0.104319,2.09477,1.00184
0.73,0.983782,1.00681,1.0882,0.0945438,2.08486,1.00193
0.74,0.98714,1.00728,1.07835,0.0852515,2.07487,1.00205
0.75,0.9896,1.00749,1.06846,0.0755816,2.06487,1.00209
0.76,0.9909,1.00802,1.05856,0.0664628,2.05471,1.00209
0.77,0.991057,1.00858,1.04865,0.0573921,2.04469,1.00218
0.78,0.989502,1.00933,1.03875,0.0485141,2.03459,1.0023
0.79,0.986759,1.01022,1.02887,0.0397794,2.02434,1.00242
0.8,0.982439,1.01094,1.01903,0.0310227,2.01457,1.00262
0.81,0.976064,1.01224,1.00923,0.0230833,2.00441,1.00279
0.82,0.967455,1.01405,0.999516,0.0162182,1.99441,1.00299
0.83,0.955229,1.01649,0.989903,0.0106105,1.98447,1.0032
0.84,0.938915,1.01957,0.980431,0.00622343,1.97439,1.00334
0.85,0.917426,1.02221,0.971148,0.000790883,1.96459,1.00371
0.86,0.889312,1.02741,0.96211,0.000260049,1.95491,1.00412
0.87,0.853334,1.0328,0.95339,2.26759e-07,1.94557,1.00469
0.88,0.809041,1.03865,0.945073,-0,1.9363,1.00557
0.89,0.754741,1.0447,0.937244,3.24828e-09,1.927,1.00656
0.9,0.689969,1.05088,0.930011,-0,1.91781,1.00769
0.91,0.615751,1.05717,0.923474,5.76657e-09,1.90899,1.00906
0.92,0.530394,1.06358,0.917735,5.23414e-08,1.90049,1.01067
0.93,0.438284,1.06977,0.912884,2.62872e-09,1.89266,1.01236
0.94,0.340522,1.07484,0.908984,1.14554e-08,1.88667,1.01394
0.95,0.239889,1.07938,0.906074,2.11789e-08,1.88083,1.01506
0.96,0.135193,1.08229,0.904193,3.02249e-08,1.87732,1.0159
0.97,0.0269944,1.08417,0.903376,3.88554e-08,1.87437,1.01607
0.98,-0.0841814,1.08349,0.903657,1.11695e-09,1.87492,1.01573
0.99,-0.190238,1.08115,0.90503,8.6829e-10,1.87804,1.01522
1,-0.300281,1.07678,0.907507,1.67254e-10,1.88395,1.0143
1.01,-0.400327,1.07325,0.911015,-0,1.88732,1.01278
1.02,-0.486587,1.066,0.915459,-0,1.89783,1.01154
1.03,-0.56285,1.05895,0.920714,8.66008e-09,1.90736,1.0099
1.04,-0.637336,1.05357,0.926721,1.28697e-09,1.91417,1.00835
1.05,-0.691622,1.04797,0.93338,1.0015e-08,1.9217,1.00694
1.06,-0.740968,1.04184,0.940546,1.5301e-08,1.93118,1.00599
1.07,-0.777777,1.03662,0.948145,2.8674e-07,1.93923,1.00513
1.08,-0.805924,1.03064,0.95607,-0,1.94883,1.00427
1.09,-0.822717,1.0259,0.964215,-0,1.95695,1.00382
1.1,-0.831978,1.02015,0.972492,-0,1.96651,1.00307
1.11,-0.832155,1.01505,0.980815,-0,1.9755,1.00262
1.12,-0.825267,1.00959,0.989105,-0,1.98494,1.00199
1.13,-0.812452,1.00395,0.997296,-0,1.99488,1.00139
1.14,-0.793693,0.998615,1.00533,0.00015289,2.00383,1.00045
1.15,-0.771074,0.995816,1.01315,0.00530212,2.01311,0.999706
1.16,-0.743585,0.993405,1.02073,0.0108286,2.02183,0.998867
1.17,-0.71303,0.992364,1.02801,0.0187848,2.03053,0.99819
1.18,-0.681932,0.991412,1.03498,0.0263688,2.03883,0.997591
1.19,-0.651245,0.991067,1.04165,0.0340613,2.04615,0.997055
1.2,-0.623312,0.990981,1.04802,0.0419855,2.05342,0.996646
1.21,-0.597712,0.992317,1.05412,0.0503404,2.05946,0.996842
1.22,-0.574648,0.994641,1.05998,0.0581733,2.06455,0.997812
1.23,-0.555183,0.997378,1.06562,0.0664122,2.06966,0.998996
1.24,-0.538079,1.00021,1.07109,0.0739717,2.07394,1.0002
1.25,-0.522953,1.00421,1.07639,0.0808711,2.07547,1.00149
1.26,-0.510229,1.00858,1.08155,0.0881749,2.07621,1.00255
1.27,-0.499469,1.01183,1.0866,0.094638,2.07799,1.00341
1.28,-0.490795,1.0137,1.09155,0.100437,2.08148,1.0041
1.29,-0.482944,1.0146,1.09642,0.105913,2.08629,1.00464
1.3,-0.475823,1.01429,1.10121,0.110837,2.09199,1.00473
1.31,-0.470182,1.01247,1.10594,0.114633,2.09835,1.00423
1.32,-0.46473,1.00976,1.11061,0.118253,2.10544,1.00329
1.33,-0.458657,1.00698,1.11523,0.122216,2.1123,1.00199
1.34,-0.450734,1.00349,1.11978,0.124552,2.119,1.0007
1.35,-0.43936,0.999327,1.12423,0.125109,2.12535,0.999448
1.36,-0.423406,0.995523,1.12855,0.12525,2.13111,0.998443
1.37,-0.402082,0.992428,1.13268,0.125722,2.13659,0.997822
1.38,-0.376995,0.990671,1.13658,0.127813,2.14124,0.997324
1.39,-0.351807,0.989487,1.14022,0.131136,2.14603,0.996857
1.4,-0.327528,0.98982,1.14362,0.135182,2.14903,0.996673
1.41,-0.303721,0.991539,1.14677,0.14009,2.15093,0.996913
1.42,-0.280573,0.993622,1.14969,0.145557,2.15367,0.997655
1.43,-0.260154,0.996258,1.15239,0.151413,2.15618,0.998634
1.44,-0.243455,0.999458,1.15491,0.156586,2.15738,0.999857
1.45,-0.229904,1.00314,1.15727,0.161132,2.15718,1.00115
1.46,-0.216409,1.0067,1.15951,0.164906,2.15582,1.00212
1.47,-0.204292,1.00939,1.16161,0.16822,2.15552,1.00298
1.48,-0.193572,1.01153,1.1636,0.171572,2.1559,1.0036
1.49,-0.184389,1.01264,1.16548,0.17374,2.15671,1.00402
1.5,-0.175484,1.01191,1.16728,0.174176,2.15855,1.004
1.51,-0.16571,1.01034,1.16899,0.175025,2.16135,1.00343
1.52,-0.154805,1.00785,1.1706,0.175985,2.16565,1.00264
1.53,-0.142533,1.00499,1.17208,0.176836,2.16992,1.00151
1.54,-0.128454,1.00139,1.17344,0.176521,2.17407,1.00016
1.55,-0.111751,0.9976,1.17465,0.174679,2.17738,0.998945
1.56,-0.0966488,0.994629,1.17569,0.172862,2.17962,0.997991
1.57,-0.0781755,0.991777,1.17657,0.170531,2.18208,0.997504
1.58,-0.0568212,0.990154,1.17725,0.169676,2.18376,0.997129
1.59,-0.0332962,0.989812,1.1777,0.169231,2.18355,0.996899
1.6,-0.00910966,0.990688,1.17791,0.169825,2.1827,0.997065
1.61,0.0146498,0.992924,1.17788,0.171486,2.18034,0.997319
