time,velocity,ratio,centerX,Xmax,Xmin,Ymax
0,0,1,2.75,1.75,3.75,1
0.01,0.0195426,0.999981,2.7499,1.74988,3.74992,1
0.02,0.0391073,1.00001,2.74961,1.74962,3.74961,1
0.03,0.0585728,1.00006,2.74912,1.74917,3.74909,1.00001
0.04,0.0779464,1.0001,2.74844,1.74852,3.74838,1.00003
0.05,0.0972439,1.00011,2.74757,1.74764,3.7475,1.00004
0.06,0.116451,1.00016,2.7465,1.74661,3.74639,1.00005
0.07,0.13558,1.0002,2.74524,1.74538,3.74509,1.00005
0.08,0.154657,1.00022,2.74379,1.74395,3.74362,1.00005
0.09,0.173763,1.00024,2.74215,1.74233,3.74195,1.00004
0.1,0.193125,1.00027,2.74031,1.74053,3.74009,1.00005
0.11,0.213054,1.00025,2.73828,1.73849,3.73813,1.00007
0.12,0.233356,1.00018,2.73605,1.7362,3.73606,1.00011
0.13,0.253459,1.00019,2.73362,1.73377,3.73369,1.00014
0.14,0.272251,1.00028,2.73099,1.73118,3.73092,1.00015
0.15,0.291039,1.00042,2.72818,1.72846,3.72777,1.00007
0.16,0.309872,1.00048,2.72517,1.72558,3.72472,1.00005
0.17,0.329133,1.00046,2.72198,1.7224,3.7216,1.00006
0.18,0.348842,1.00043,2.71859,1.719,3.71839,1.00013
0.19,0.367388,1.00029,2.71501,1.71503,3.71492,1.00023
0.2,0.385827,1.00035,2.71124,1.71123,3.71094,1.00021
0.21,0.404612,1.00046,2.70729,1.70748,3.70689,1.00017
0.22,0.423509,1.00061,2.70315,1.70371,3.70274,1.00012
0.23,0.441876,1.00072,2.69883,1.6997,3.69847,1.0001
0.24,0.459621,1.0007,2.69432,1.69486,3.69382,1.00018
0.25,0.478572,1.00067,2.68963,1.68992,3.68909,1.00025
0.26,0.496979,1.00055,2.68475,1.68494,3.68448,1.00032
0.27,0.515031,1.00075,2.67969,1.68023,3.67936,1.00032
0.28,0.533581,1.001,2.67445,1.67519,3.67374,1.00027
0.29,0.551762,1.00102,2.66902,1.66978,3.66822,1.00024
0.3,0.569768,1.00111,2.66342,1.66412,3.66237,1.00023
0.31,0.588184,1.00116,2.65763,1.6584,3.65678,1.00035
0.32,0.606098,1.00099,2.65166,1.65241,3.65129,1.00043
0.33,0.624092,1.00106,2.64551,1.6463,3.64504,1.00043
0.34,0.641325,1.00123,2.63918,1.63991,3.63831,1.00043
0.35,0.658927,1.0013,2.63268,1.63353,3.63171,1.00039
0.36,0.676868,1.00152,2.626,1.62721,3.62486,1.00034
0.37,0.694137,1.00136,2.61915,1.62025,3.61829,1.00037
0.38,0.711968,1.0014,2.61212,1.61305,3.61123,1.00049
0.39,0.727909,1.00143,2.60492,1.60575,3.60396,1.00053
0.4,0.745289,1.00138,2.59755,1.59817,3.59659,1.00059
0.41,0.762653,1.00158,2.59001,1.5911,3.58894,1.0005
0.42,0.780082,1.0018,2.5823,1.58372,3.5812,1.00053
0.43,0.797179,1.00197,2.57441,1.57588,3.57297,1.00051
0.44,0.814411,1.00197,2.56636,1.56776,3.56498,1.00057
0.45,0.831379,1.00183,2.55813,1.5592,3.55692,1.00069
0.46,0.848514,1.00207,2.54973,1.55113,3.54847,1.00074
0.47,0.865468,1.00208,2.54116,1.54255,3.53989,1.00075
0.48,0.88201,1.00232,2.53242,1.53401,3.53084,1.00073
0.49,0.898773,1.00243,2.52352,1.5251,3.52157,1.00067
0.5,0.915725,1.00256,2.51445,1.51621,3.51266,1.00078
0.51,0.932547,1.00249,2.50521,1.50696,3.50357,1.00079
0.52,0.949268,1.00245,2.4958,1.49751,3.49442,1.0009
0.53,0.965831,1.00252,2.48622,1.48779,3.48464,1.00094
0.54,0.982329,1.0027,2.47648,1.47832,3.47471,1.00089
0.55,0.999039,1.00279,2.46658,1.46839,3.46463,1.00091
0.56,1.01594,1.00293,2.4565,1.45871,3.4546,1.00086
0.57,1.03231,1.0031,2.44626,1.4485,3.44419,1.00094
0.58,1.04877,1.00304,2.43586,1.43783,3.43384,1.00103
0.59,1.06514,1.00309,2.42529,1.4272,3.42322,1.00109
0.6,1.08135,1.0031,2.41456,1.41649,3.4125,1.0011
0.61,1.09753,1.00344,2.40366,1.40604,3.4014,1.00111
0.62,1.11361,1.0035,2.39261,1.39508,3.39032,1.00111
0.63,1.1296,1.00372,2.38139,1.38407,3.37887,1.00111
0.64,1.14429,1.00375,2.37002,1.37252,3.36741,1.00119
0.65,1.15961,1.00376,2.3585,1.36101,3.35619,1.00133
0.66,1.17545,1.00389,2.34683,1.3495,3.34442,1.00134
0.67,1.1912,1.00398,2.335,1.33772,3.33243,1.00133
0.68,1.20697,1.00418,2.323,1.32563,3.32002,1.00137
0.69,1.22276,1.00435,2.31086,1.31387,3.3079,1.00135
0.7,1.23847,1.00439,2.29855,1.30156,3.29559,1.00139
0.71,1.25405,1.00435,2.28609,1.28913,3.28332,1.00143
0.72,1.26957,1.00442,2.27347,1.27642,3.27069,1.00154
0.73,1.28518,1.00457,2.2607,1.26369,3.25772,1.00157
0.74,1.30055,1.00475,2.24777,1.25095,3.24458,1.00155
0.75,1.31592,1.00478,2.23469,1.23799,3.23163,1.00158
0.76,1.33116,1.00507,2.22145,1.22506,3.21811,1.00158
0.77,1.34608,1.00515,2.20807,1.21164,3.20465,1.00164
0.78,1.36105,1.00516,2.19453,1.19792,3.19108,1.00172
0.79,1.37633,1.00527,2.18085,1.18431,3.17741,1.0018
0.8,1.39127,1.00541,2.16701,1.1707,3.16362,1.00185
0.81,1.40611,1.00562,2.15302,1.15686,3.14934,1.00184
0.82,1.42087,1.00574,2.13889,1.14284,3.13511,1.00186
0.83,1.43559,1.00594,2.12461,1.12864,3.12061,1.00191
0.84,1.4503,1.00606,2.11018,1.11443,3.1063,1.00197
0.85,1.46528,1.00605,2.0956,1.09976,3.09185,1.00207
0.86,1.48026,1.0062,2.08088,1.08511,3.07699,1.00211
0.87,1.49495,1.00646,2.066,1.07034,3.06174,1.00213
0.88,1.50893,1.0066,2.05098,1.05538,3.04652,1.00214
0.89,1.52285,1.00667,2.03582,1.04036,3.03135,1.00213
0.9,1.53676,1.0067,2.02053,1.02521,3.01624,1.00219
0.91,1.55071,1.00684,2.00509,1.00979,3.00069,1.00225
0.92,1.56445,1.0069,1.98951,0.994165,2.98512,1.00234
0.93,1.57818,1.00701,1.9738,0.978532,2.96933,1.00238
0.94,1.59176,1.00724,1.95795,0.962925,2.95329,1.00238
0.95,1.60511,1.00743,1.94197,0.947153,2.9372,1.00241
0.96,1.61848,1.00761,1.92585,0.931184,2.92093,1.00244
0.97,1.63161,1.00773,1.9096,0.914946,2.90457,1.0025
0.98,1.64463,1.00777,1.89322,0.898461,2.88819,1.00259
0.99,1.65728,1.00789,1.87671,0.882131,2.87176,1.00266
1,1.67002,1.00801,1.86008,0.865603,2.85506,1.0027
1.01,1.68258,1.00828,1.84331,0.849101,2.83804,1.0027
1.02,1.69505,1.00848,1.82643,0.832353,2.82095,1.00273
1.03,1.70734,1.00863,1.80942,0.815529,2.80393,1.00278
1.04,1.71956,1.0087,1.79228,0.798469,2.78684,1.00283
1.05,1.73139,1.00876,1.77503,0.781227,2.76967,1.00293
1.06,1.74314,1.00892,1.75766,0.763858,2.75208,1.00298
1.07,1.75486,1.0091,1.74017,0.746447,2.7344,1.00302
1.08,1.76627,1.00926,1.72256,0.728937,2.71662,1.00304
1.09,1.77737,1.0094,1.70484,0.711423,2.69889,1.00308
1.1,1.78849,1.00958,1.68701,0.693797,2.68105,1.00314
1.11,1.79912,1.00971,1.66908,0.675927,2.66304,1.0032
1.12,1.80955,1.00982,1.65103,0.657924,2.64495,1.00327
1.13,1.81977,1.00996,1.63289,0.63986,2.62669,1.00331
1.14,1.82984,1.01028,1.61464,0.621982,2.60826,1.00335
1.15,1.83945,1.01047,1.59629,0.60377,2.58975,1.00339
1.16,1.84865,1.01068,1.57785,0.585477,2.57114,1.00343
1.17,1.85754,1.01079,1.55932,0.567047,2.55261,1.0035
1.18,1.86608,1.0109,1.54071,0.54855,2.53407,1.00358
1.19,1.8744,1.01111,1.522,0.530023,2.51528,1.00366
1.2,1.88262,1.01142,1.50322,0.511493,2.49629,1.00373
1.21,1.89016,1.01168,1.48436,0.492766,2.47713,1.00377
1.22,1.89712,1.01183,1.46542,0.474029,2.45814,1.00379
1.23,1.90365,1.0119,1.44642,0.455172,2.43922,1.00383
1.24,1.90963,1.01215,1.42735,0.436477,2.42025,1.00394
1.25,1.91531,1.01252,1.40822,0.417597,2.40088,1.00406
1.26,1.92019,1.01271,1.38905,0.398504,2.38153,1.00412
1.27,1.92446,1.01295,1.36982,0.379462,2.36209,1.00415
1.28,1.92822,1.01313,1.35056,0.360362,2.34272,1.0042
1.29,1.93125,1.01357,1.33126,0.341587,2.32325,1.00428
1.3,1.93346,1.01384,1.31194,0.322572,2.30388,1.00436
1.31,1.93482,1.01402,1.2926,0.30346,2.28454,1.00443
1.32,1.93543,1.01432,1.27325,0.284354,2.26505,1.00453
1.33,1.93527,1.01473,1.2539,0.265439,2.24557,1.00465
1.34,1.93385,1.01522,1.23455,0.246683,2.22599,1.00472
1.35,1.93108,1.01555,1.21523,0.227848,2.20659,1.00476
1.36,1.92686,1.01601,1.19594,0.208997,2.18704,1.00485
1.37,1.92147,1.01659,1.1767,0.190391,2.16763,1.00502
1.38,1.9146,1.01716,1.15752,0.171907,2.14834,1.00518
1.39,1.90605,1.01772,1.13841,0.153564,2.12913,1.00529
1.4,1.89556,1.01841,1.11941,0.135329,2.10981,1.00541
1.41,1.88302,1.01928,1.10051,0.117524,2.09064,1.00558
1.42,1.86799,1.02037,1.08176,0.100232,2.07156,1.00574
1.43,1.85013,1.02148,1.06317,0.0832409,2.05279,1.00593
1.44,1.82875,1.02282,1.04477,0.0668001,2.03419,1.00614
1.45,1.80356,1.02466,1.02661,0.0511713,2.01554,1.0064
1.46,1.77388,1.02707,1.00872,0.0367987,1.99719,1.00673
1.47,1.73868,1.03051,0.991161,0.0245552,1.97906,1.00707
1.48,1.69602,1.03524,0.973986,0.0148568,1.96117,1.00745
1.49,1.64416,1.04193,0.957282,0.00895018,1.94368,1.00793
1.5,1.58078,1.04975,0.941152,0.00522485,1.92666,1.00851
1.51,1.50179,1.0579,0.925729,0.0017189,1.90995,1.00936
1.52,1.40342,1.06747,0.911187,7.38411e-05,1.8936,1.01064
1.53,1.28372,1.07826,0.897738,-0,1.87821,1.0126
1.54,1.14502,1.09013,0.885576,1.60486e-07,1.86283,1.01537
1.55,0.986719,1.10198,0.8749,-0,1.84829,1.01839
1.56,0.809214,1.11343,0.865901,6.86761e-05,1.83442,1.02121
1.57,0.618027,1.12558,0.858756,3.35097e-09,1.81975,1.02414
1.58,0.419274,1.1361,0.853558,-0,1.80779,1.02692
1.59,0.210986,1.14277,0.850394,2.35542e-06,1.80084,1.02897
1.6,0.00206241,1.14597,0.849325,7.17385e-07,1.79831,1.0304
1.61,-0.201133,1.14678,0.850323,-0,1.79762,1.03074
1.62,-0.39519,1.14308,0.853305,-0,1.802,1.02991
1.63,-0.585716,1.13454,0.858204,-0,1.81131,1.0275
1.64,-0.77333,1.12442,0.864999,3.68101e-08,1.8223,1.02452
1.65,-0.940292,1.11182,0.873579,2.25512e-05,1.83751,1.02148
1.66,-1.0883,1.09796,0.883737,-0,1.85382,1.01771
1.67,-1.21753,1.08328,0.895273,-0,1.87183,1.01386
1.68,-1.32446,1.06935,0.907997,-0,1.8902,1.01064
1.69,-1.40646,1.05737,0.921668,-0,1.90621,1.00778
1.7,-1.46454,1.04451,0.936037,5.09791e-05,1.92528,1.00545
1.71,-1.49967,1.03261,0.950871,0.000121162,1.94443,1.00385
1.72,-1.51349,1.02279,0.965947,0.000198593,1.96086,1.00267
1.73,-1.5096,1.01406,0.981071,0.000430095,1.97675,1.00205
1.74,-1.49085,1.00494,0.996079,0.000580163,1.99299,1.00113
1.75,-1.46154,0.996636,1.01084,0.000393921,2.00816,1.00051
1.76,-1.42505,0.992833,1.02528,0.00857394,2.02313,1.00006
1.77,-1.38351,0.993938,1.03932,0.0267252,2.03792,0.9995
1.78,-1.34123,0.994989,1.05294,0.0448477,2.05268,0.998886
1.79,-1.30669,0.996661,1.06616,0.0636174,2.06696,0.998327
1.8,-1.28024,0.997502,1.07909,0.0818301,2.08116,0.997166
1.81,-1.26031,0.998922,1.09179,0.0981931,2.09452,0.997089
1.82,-1.24456,1.00168,1.10431,0.113413,2.10788,0.998912
1.83,-1.2303,1.00648,1.11668,0.127757,2.11766,1.0014
1.84,-1.21676,1.00832,1.12892,0.141281,2.13221,1.00375
1.85,-1.20282,1.01243,1.14101,0.154042,2.14045,1.00555
1.86,-1.19038,1.01904,1.15298,0.166315,2.14198,1.00664
1.87,-1.17883,1.02447,1.16482,0.178375,2.14472,1.00723
1.88,-1.16707,1.02646,1.17655,0.190594,2.15264,1.00698
1.89,-1.15772,1.02539,1.18817,0.201062,2.16618,1.00751
1.9,-1.15152,1.02353,1.19972,0.213757,2.18279,1.00768
1.91,-1.14866,1.01781,1.21121,0.22253,2.20053,1.00661
1.92,-1.14727,1.0115,1.22269,0.231751,2.21792,1.00451
1.93,-1.14647,1.00709,1.23416,0.244761,2.23395,1.00165
1.94,-1.14429,1.00249,1.24562,0.25369,2.24778,0.999532
1.95,-1.13458,0.995638,1.25702,0.257309,2.26133,0.997638
1.96,-1.11526,0.990382,1.26827,0.259446,2.27233,0.996763
1.97,-1.08823,0.987147,1.2793,0.264481,2.2843,0.996931
1.98,-1.05718,0.987949,1.29003,0.274584,2.29312,0.997103
1.99,-1.02587,0.988896,1.30044,0.288619,2.3048,0.996898
2,-0.995397,0.991975,1.31054,0.304748,2.31432,0.996724
2.01,-0.968107,0.997686,1.32036,0.321388,2.32098,0.997484
2.02,-0.94449,1.0023,1.32991,0.335592,2.32983,0.999413
2.03,-0.924868,1.00577,1.33926,0.349352,2.34082,1.00148
2.04,-0.907804,1.00855,1.34842,0.359357,2.34994,1.0038
2.05,-0.892083,1.01336,1.35742,0.369766,2.3547,1.00573
2.06,-0.877369,1.01707,1.36627,0.377732,2.35645,1.00625
2.07,-0.863267,1.0195,1.37497,0.384678,2.3582,1.00601
2.08,-0.84803,1.02048,1.38353,0.393503,2.3642,1.00553
2.09,-0.833696,1.01913,1.39193,0.400948,2.3741,1.00545
2.1,-0.820496,1.01392,1.4002,0.405583,2.38756,1.00479
2.11,-0.809634,1.00798,1.40835,0.411378,2.4022,1.00335
2.12,-0.799142,1.00254,1.4164,0.419434,2.41757,1.0016
2.13,-0.787653,0.99855,1.42433,0.427834,2.4291,0.999182
2.14,-0.773977,0.993552,1.43214,0.433883,2.4406,0.996887
2.15,-0.757419,0.988847,1.4398,0.436252,2.44958,0.995439
2.16,-0.735927,0.986762,1.44727,0.437492,2.45489,0.995348
2.17,-0.711062,0.985721,1.45451,0.439908,2.46093,0.996084
2.18,-0.684288,0.986646,1.46149,0.447354,2.46753,0.996601
2.19,-0.656629,0.989483,1.46819,0.456767,2.4724,0.997216
2.2,-0.630513,0.995799,1.47463,0.470294,2.47499,0.998136
2.21,-0.605247,1.00172,1.48081,0.483061,2.47806,0.999217
2.22,-0.58375,1.00582,1.48675,0.493903,2.48423,1.00095
2.23,-0.565831,1.0097,1.49249,0.504069,2.49082,1.00301
2.24,-0.550992,1.01276,1.49808,0.511645,2.49648,1.00508
2.25,-0.536668,1.0148,1.50352,0.515395,2.49807,1.00601
2.26,-0.522559,1.01574,1.50881,0.518393,2.49855,1.00566
2.27,-0.509414,1.0163,1.51397,0.522607,2.50028,1.00495
2.28,-0.49458,1.01507,1.519,0.525713,2.50367,1.00388
2.29,-0.477757,1.01036,1.52386,0.526714,2.51194,1.0029
2.3,-0.46264,1.00416,1.52856,0.527751,2.52283,1.00168
2.31,-0.446925,0.999045,1.53311,0.530373,2.53304,1.00038
2.32,-0.431585,0.99437,1.5375,0.534763,2.54346,0.998695
2.33,-0.414499,0.990378,1.54173,0.540315,2.55285,0.996584
2.34,-0.39604,0.987548,1.54579,0.542895,2.55822,0.995113
2.35,-0.376547,0.986739,1.54965,0.544007,2.56024,0.994751
2.36,-0.355052,0.986626,1.55331,0.544071,2.56167,0.99531
2.37,-0.33179,0.987014,1.55675,0.544378,2.56353,0.996467
2.38,-0.309106,0.990674,1.55995,0.54906,2.56335,0.997751
2.39,-0.285511,0.995928,1.56293,0.556459,2.56273,0.999049
2.4,-0.263781,1.00151,1.56567,0.564209,2.56163,1.00021
2.41,-0.242846,1.00675,1.5682,0.572686,2.56196,1.00135
2.42,-0.22516,1.01122,1.57054,0.581418,2.56511,1.00298
2.43,-0.21018,1.01372,1.57272,0.586618,2.5683,1.00444
2.44,-0.196859,1.01418,1.57475,0.588085,2.57065,1.00535
2.45,-0.185304,1.01386,1.57666,0.587698,2.57097,1.00538
2.46,-0.17301,1.0132,1.57845,0.586462,2.56954,1.00463
2.47,-0.158576,1.01084,1.58012,0.584873,2.5699,1.00327
2.48,-0.141674,1.00678,1.58162,0.583512,2.57311,1.00155
2.49,-0.122438,1.00175,1.58294,0.580598,2.57753,1.00021
2.5,-0.104167,0.996522,1.58407,0.578189,2.58333,0.999085
2.51,-0.0858291,0.991952,1.58502,0.578296,2.59012,0.997816
2.52,-0.0664592,0.988094,1.58579,0.579601,2.59659,0.996486
2.53,-0.045899,0.986776,1.58635,0.581961,2.59959,0.995474
2.54,-0.0249474,0.986995,1.58671,0.583181,2.59958,0.995086
2.55,-0.00314675,0.987995,1.58685,0.581576,2.5966,0.995418
2.56,0.0189343,0.989837,1.58677,0.579505,2.5929,0.996465
