time,velocity,ratio,centerX,Xmax,Xmin,Ymax
0,0,1,4.75,3.75,5.75,1
0.01,0.0201428,1.00002,4.7499,3.74992,5.74988,1
0.02,0.0403057,1.00003,4.7496,3.74962,5.74957,1.00001
0.03,0.0603901,1.00009,4.7491,3.74916,5.74903,1.00002
0.04,0.0803868,1.00012,4.74839,3.74847,5.74831,1.00004
0.05,0.100316,1.00016,4.74749,3.74759,5.74737,1.00005
0.06,0.120102,1.0002,4.74639,3.74652,5.74624,1.00006
0.07,0.139814,1.00024,4.74509,3.74525,5.7449,1.00006
0.08,0.159486,1.00022,4.74359,3.74376,5.7434,1.00005
0.09,0.179268,1.00024,4.7419,3.74208,5.7417,1.00004
0.1,0.199566,1.00022,4.74001,3.74019,5.73984,1.00004
0.11,0.220952,1.00011,4.73791,3.73799,5.73791,1.00006
0.12,0.243063,1.00009,4.73559,3.73567,5.73572,1.00011
0.13,0.264576,1.00015,4.73305,3.73317,5.73313,1.00013
0.14,0.284805,1.00029,4.7303,3.73052,5.73014,1.0001
0.15,0.304617,1.00049,4.72736,3.72775,5.72681,1.00001
0.16,0.324106,1.00051,4.72421,3.72469,5.72376,1.00004
0.17,0.344688,1.0004,4.72087,3.72119,5.72066,1.00013
0.18,0.365279,1.0002,4.71732,3.7172,5.71734,1.00027
0.19,0.385093,1.00039,4.71357,3.71369,5.71338,1.00023
0.2,0.404575,1.0006,4.70962,3.71006,5.70903,1.00008
0.21,0.424576,1.00071,4.70548,3.70635,5.70496,1.00002
0.22,0.44437,1.00052,4.70113,3.70172,5.70096,1.00014
0.23,0.46337,1.00035,4.69659,3.69655,5.69637,1.00026
0.24,0.482789,1.0003,4.69187,3.69184,5.6917,1.00023
0.25,0.5035,1.00044,4.68694,3.68718,5.68656,1.00014
0.26,0.522118,1.00075,4.68181,3.68266,5.68132,1.00009
0.27,0.542291,1.0008,4.67648,3.67699,5.67562,1.00011
0.28,0.561405,1.00056,4.67096,3.67124,5.67056,1.00022
0.29,0.579747,1.00057,4.66526,3.66569,5.6653,1.00038
0.3,0.600698,1.00083,4.65936,3.6599,5.65893,1.00034
0.31,0.619611,1.00089,4.65326,3.65387,5.65254,1.00022
0.32,0.638159,1.00127,4.64697,3.64784,5.64571,1.0002
0.33,0.657047,1.00116,4.64049,3.64144,5.63978,1.00033
0.34,0.675335,1.00074,4.63383,3.63432,5.63363,1.00039
0.35,0.694549,1.00094,4.62698,3.62729,5.62635,1.00047
0.36,0.712751,1.00109,4.61995,3.62054,5.61909,1.00036
0.37,0.731238,1.00113,4.61273,3.61377,5.61193,1.00021
0.38,0.749271,1.00118,4.60533,3.60645,5.60454,1.00023
0.39,0.767411,1.00114,4.59774,3.59846,5.59694,1.00038
0.4,0.785804,1.00083,4.58998,3.59033,5.58951,1.00042
0.41,0.804093,1.00089,4.58203,3.58238,5.58149,1.00045
0.42,0.822084,1.00146,4.5739,3.57515,5.57295,1.00035
0.43,0.839828,1.00143,4.56559,3.56647,5.56426,1.00033
0.44,0.857393,1.00149,4.5571,3.55821,5.55596,1.00036
0.45,0.87512,1.00146,4.54844,3.54934,5.54769,1.00064
0.46,0.892351,1.00148,4.53961,3.54067,5.53891,1.0006
0.47,0.910219,1.00158,4.53059,3.53151,5.52957,1.0006
0.48,0.927662,1.0021,4.5214,3.52281,5.5196,1.00049
0.49,0.945209,1.00192,4.51204,3.51355,5.51077,1.00052
0.5,0.962802,1.00184,4.5025,3.50384,5.50133,1.00058
0.51,0.979929,1.00167,4.49279,3.49375,5.49188,1.00073
0.52,0.997651,1.00184,4.4829,3.48385,5.48154,1.00069
0.53,1.01506,1.00179,4.47284,3.47414,5.4717,1.00057
0.54,1.03276,1.00215,4.4626,3.46438,5.46107,1.00049
0.55,1.04992,1.00213,4.45219,3.45378,5.45078,1.00063
0.56,1.06724,1.00178,4.4416,3.44261,5.44044,1.0007
0.57,1.08421,1.00193,4.43084,3.43199,5.4297,1.00078
0.58,1.1014,1.00234,4.41992,3.42153,5.41843,1.00079
0.59,1.11836,1.00238,4.40882,3.41039,5.40701,1.00069
0.6,1.13536,1.00261,4.39755,3.39939,5.39558,1.0007
0.61,1.15238,1.00275,4.38611,3.38798,5.38425,1.00088
0.62,1.16939,1.00248,4.3745,3.37625,5.37328,1.00099
0.63,1.18623,1.00264,4.36273,3.36437,5.3611,1.001
0.64,1.20287,1.00299,4.35078,3.3527,5.34861,1.00094
0.65,1.21982,1.00305,4.33867,3.34096,5.33651,1.00082
0.66,1.23672,1.00294,4.32639,3.32851,5.32445,1.00091
0.67,1.25347,1.00302,4.31394,3.31603,5.31209,1.00104
0.68,1.27012,1.00268,4.30132,3.30273,5.29954,1.00108
0.69,1.28677,1.00288,4.28853,3.29047,5.28665,1.00097
0.7,1.30333,1.00319,4.27558,3.2779,5.27346,1.00096
0.71,1.31977,1.0033,4.26247,3.26491,5.26017,1.00093
0.72,1.3362,1.00313,4.24919,3.25124,5.24711,1.00106
0.73,1.35248,1.00332,4.23575,3.23782,5.2336,1.0012
0.74,1.36909,1.0033,4.22214,3.22435,5.22025,1.00124
0.75,1.38529,1.00367,4.20837,3.21082,5.20579,1.00115
0.76,1.40121,1.00395,4.19444,3.19711,5.19151,1.00114
0.77,1.41764,1.00397,4.18034,3.18307,5.17755,1.0012
0.78,1.43358,1.00383,4.16608,3.16877,5.16383,1.00135
0.79,1.44966,1.00391,4.15167,3.15416,5.14925,1.00145
0.8,1.4656,1.00412,4.13709,3.13974,5.13436,1.00142
0.81,1.48186,1.00419,4.12235,3.12521,5.11948,1.00132
0.82,1.49876,1.00435,4.10745,3.11063,5.10455,1.0013
0.83,1.51492,1.00436,4.09239,3.09547,5.08956,1.00139
0.84,1.53088,1.00418,4.07716,3.0798,5.07441,1.00147
0.85,1.54677,1.00413,4.06177,3.06439,5.0592,1.00153
0.86,1.56225,1.00446,4.04623,3.04933,5.04341,1.00149
0.87,1.57791,1.00465,4.03053,3.03392,5.02752,1.00144
0.88,1.59387,1.00473,4.01467,3.01798,5.01145,1.00145
0.89,1.60958,1.00477,3.99865,3.00184,4.99559,1.00163
0.9,1.62531,1.00478,3.98248,2.98572,4.9796,1.00171
0.91,1.64082,1.00489,3.96615,2.96925,4.96297,1.00173
0.92,1.65632,1.00529,3.94966,2.95317,4.94602,1.0017
0.93,1.67186,1.00538,3.93302,2.93666,4.92934,1.0017
0.94,1.68727,1.00538,3.91623,2.92007,4.91281,1.00173
0.95,1.70262,1.00546,3.89928,2.903,4.89587,1.00187
0.96,1.71815,1.00551,3.88218,2.8857,4.87853,1.0019
0.97,1.7341,1.00549,3.86492,2.86849,4.86127,1.00186
0.98,1.74948,1.00584,3.8475,2.85153,4.84355,1.00183
0.99,1.76475,1.00589,3.82993,2.83411,4.82607,1.00185
1,1.78011,1.00575,3.8122,2.81607,4.80844,1.00192
1.01,1.79524,1.00575,3.79433,2.79811,4.7907,1.00202
1.02,1.8102,1.00585,3.7763,2.78024,4.77265,1.00203
1.03,1.82516,1.00605,3.75813,2.76239,4.75425,1.00196
1.04,1.84019,1.00628,3.7398,2.74409,4.73557,1.002
1.05,1.85496,1.00646,3.72132,2.7258,4.71711,1.00209
1.06,1.86792,1.00637,3.70271,2.70707,4.69877,1.0022
1.07,1.88243,1.00651,3.68396,2.68828,4.67986,1.00228
1.08,1.89699,1.0067,3.66506,2.66947,4.66068,1.00228
1.09,1.91174,1.00688,3.64602,2.65062,4.64137,1.00222
1.1,1.92596,1.00701,3.62683,2.63176,4.62231,1.00225
1.11,1.9405,1.00708,3.6075,2.61245,4.60303,1.00234
1.12,1.95499,1.00694,3.58802,2.59265,4.58366,1.00241
1.13,1.96961,1.00695,3.5684,2.57292,4.56389,1.0024
1.14,1.98427,1.00722,3.54863,2.5535,4.5439,1.00239
1.15,1.99854,1.00737,3.52872,2.53395,4.52396,1.00234
1.16,2.01276,1.00733,3.50866,2.51366,4.50385,1.00238
1.17,2.02716,1.00741,3.48846,2.49336,4.48366,1.00252
1.18,2.04115,1.00751,3.46812,2.47317,4.46341,1.0026
1.19,2.05504,1.00767,3.44764,2.45287,4.44277,1.00258
1.2,2.06873,1.00796,3.42703,2.43245,4.42184,1.00261
1.21,2.08252,1.0082,3.40627,2.41187,4.40086,1.00265
1.22,2.09638,1.00819,3.38538,2.39112,4.38024,1.0027
1.23,2.11022,1.00828,3.36434,2.36999,4.3592,1.00284
1.24,2.12399,1.00839,3.34317,2.34875,4.33784,1.00289
1.25,2.13756,1.00846,3.32187,2.32751,4.31631,1.00281
1.26,2.15156,1.00865,3.30042,2.30638,4.2948,1.00281
1.27,2.16527,1.00868,3.27884,2.28491,4.27339,1.00286
1.28,2.17886,1.00864,3.25712,2.26308,4.25169,1.00289
1.29,2.1926,1.00864,3.23526,2.24095,4.22975,1.00299
1.3,2.20359,1.00877,3.21328,2.21925,4.20777,1.00298
1.31,2.21692,1.00897,3.19118,2.19737,4.18544,1.00296
1.32,2.22983,1.00908,3.16895,2.17512,4.16298,1.00295
1.33,2.24387,1.00924,3.14658,2.15294,4.14067,1.00305
1.34,2.25707,1.00923,3.12407,2.13028,4.11825,1.00316
1.35,2.27005,1.00926,3.10144,2.10773,4.0957,1.00319
1.36,2.28316,1.00977,3.07867,2.08528,4.07238,1.00325
1.37,2.29834,1.00981,3.05577,2.06244,4.04935,1.00321
1.38,2.31142,1.01003,3.03272,2.03971,4.02638,1.0033
1.39,2.32428,1.01011,3.00954,2.01648,4.00317,1.00338
1.4,2.33739,1.01021,2.98623,1.99318,3.97986,1.00348
1.41,2.35028,1.01021,2.9628,1.96966,3.95629,1.00345
1.42,2.36337,1.01043,2.93923,1.94629,3.93251,1.00347
1.43,2.3759,1.01042,2.91553,1.92282,3.90897,1.00343
1.44,2.38869,1.01058,2.89171,1.89903,3.88502,1.0035
1.45,2.40124,1.01041,2.86776,1.87487,3.86127,1.00354
1.46,2.41382,1.01063,2.84369,1.85088,3.83704,1.00364
1.47,2.42633,1.01064,2.81949,1.82677,3.8128,1.00358
1.48,2.43878,1.011,2.79516,1.80267,3.78806,1.00362
1.49,2.45092,1.01106,2.77072,1.77833,3.76366,1.00364
1.5,2.46288,1.01117,2.74615,1.75371,3.73905,1.00375
1.51,2.47479,1.01119,2.72146,1.72911,3.71457,1.00384
1.52,2.48667,1.01151,2.69665,1.70444,3.68936,1.00389
1.53,2.49854,1.01166,2.67173,1.67971,3.66435,1.00389
1.54,2.51014,1.01182,2.64669,1.65481,3.63917,1.0039
1.55,2.52183,1.01203,2.62153,1.6299,3.61397,1.00397
1.56,2.5332,1.01197,2.59625,1.60451,3.58888,1.00406
1.57,2.54483,1.01201,2.57086,1.57898,3.56329,1.00407
1.58,2.55647,1.01217,2.54536,1.55362,3.53768,1.00411
1.59,2.56804,1.01219,2.51974,1.52814,3.51208,1.00406
1.6,2.57925,1.01243,2.494,1.50268,3.48614,1.00406
1.61,2.59053,1.01234,2.46815,1.47668,3.46052,1.00416
1.62,2.60166,1.01241,2.44219,1.45065,3.43447,1.00422
1.63,2.61239,1.01257,2.41612,1.42483,3.40837,1.00423
1.64,2.62325,1.01273,2.38994,1.39863,3.38194,1.00427
1.65,2.63376,1.01302,2.36366,1.37263,3.3554,1.00429
1.66,2.64398,1.0131,2.33727,1.34636,3.32906,1.00433
1.67,2.65438,1.01316,2.31078,1.31977,3.30261,1.00447
1.68,2.66464,1.01341,2.28419,1.29339,3.2759,1.00455
1.69,2.67556,1.01353,2.25749,1.26679,3.24906,1.00454
1.7,2.68408,1.01373,2.23069,1.24008,3.22201,1.00458
1.71,2.694,1.01393,2.2038,1.21351,3.19516,1.00462
1.72,2.70355,1.01395,2.17682,1.18657,3.16824,1.00466
1.73,2.71292,1.01403,2.14974,1.15942,3.14103,1.00471
1.74,2.72233,1.01407,2.12256,1.13214,3.11379,1.00476
1.75,2.73158,1.01413,2.09529,1.10503,3.08654,1.00475
1.76,2.74052,1.01436,2.06793,1.078,3.059,1.00472
1.77,2.74915,1.01437,2.04048,1.05049,3.03155,1.00476
1.78,2.7576,1.01445,2.01295,1.02294,3.00405,1.00487
1.79,2.76572,1.01454,1.98534,0.995453,2.97652,1.00494
1.8,2.77356,1.01485,1.95764,0.967972,2.94848,1.00495
1.81,2.78089,1.01503,1.92987,0.940354,2.9205,1.00496
1.82,2.78796,1.01516,1.90202,0.912529,2.89258,1.00504
1.83,2.79488,1.01538,1.87411,0.88489,2.8647,1.00514
1.84,2.80131,1.01556,1.84613,0.857036,2.83666,1.00521
1.85,2.8075,1.01567,1.81809,0.828977,2.80847,1.00525
1.86,2.81337,1.0158,1.78998,0.801014,2.78028,1.00527
1.87,2.81873,1.01602,1.76182,0.773169,2.75205,1.0053
1.88,2.82371,1.01617,1.73361,0.745131,2.72381,1.00534
1.89,2.82818,1.01629,1.70535,0.716912,2.6955,1.00541
1.9,2.83213,1.01635,1.67705,0.688614,2.6672,1.00547
1.91,2.8356,1.0164,1.64872,0.660359,2.63883,1.00546
1.92,2.83855,1.01667,1.62034,0.63222,2.61022,1.00549
1.93,2.8406,1.01689,1.59195,0.604039,2.58172,1.00554
1.94,2.84199,1.01707,1.56354,0.57586,2.55333,1.00561
1.95,2.84244,1.01724,1.53512,0.547615,2.52492,1.0057
1.96,2.8419,1.01747,1.50669,0.519398,2.4964,1.00577
1.97,2.84041,1.01772,1.47828,0.491164,2.46775,1.00581
1.98,2.83787,1.01808,1.44989,0.463128,2.43914,1.00587
1.99,2.83422,1.01846,1.42153,0.435183,2.41066,1.00597
2,2.82904,1.01872,1.39322,0.40721,2.38236,1.00606
2.01,2.82249,1.01901,1.36496,0.379209,2.354,1.00617
2.02,2.81442,1.01924,1.33677,0.351277,2.32573,1.00622
2.03,2.80425,1.01966,1.30868,0.323717,2.29747,1.00628
2.04,2.7926,1.02014,1.2807,0.296326,2.26932,1.00636
2.05,2.77861,1.02064,1.25284,0.269128,2.24136,1.00647
2.06,2.76207,1.02115,1.22514,0.242035,2.21352,1.00659
2.07,2.74286,1.02154,1.19761,0.214985,2.18593,1.0067
2.08,2.72079,1.02231,1.17029,0.188628,2.15837,1.00685
2.09,2.69494,1.02328,1.14322,0.162791,2.13093,1.00698
2.1,2.66451,1.02435,1.11642,0.137498,2.10388,1.00714
2.11,2.62899,1.02551,1.08995,0.112568,2.0772,1.00737
2.12,2.58767,1.02713,1.06386,0.088746,2.05084,1.00767
2.13,2.53927,1.02932,1.03823,0.0662092,2.02471,1.00796
2.14,2.48303,1.03212,1.01311,0.0451506,1.99895,1.00828
2.15,2.41588,1.0365,0.988615,0.0273917,1.97381,1.00873
2.16,2.33421,1.04344,0.964859,0.0147323,1.94926,1.00928
2.17,2.23284,1.05357,0.942014,0.00798085,1.92527,1.01
2.18,2.10452,1.06501,0.920308,0.00347138,1.902,1.01098
2.19,1.93738,1.07736,0.900068,0.00018771,1.8797,1.01246
2.2,1.72642,1.09262,0.881714,-0,1.85817,1.01514
2.21,1.47333,1.10949,0.865682,-0,1.83758,1.01939
2.22,1.18026,1.12572,0.852381,-0,1.81858,1.0236
2.23,0.855722,1.14261,0.842171,1.00002e-08,1.79939,1.028
2.24,0.511273,1.15855,0.835318,8.61625e-05,1.78161,1.03199
2.25,0.166874,1.16806,0.831932,8.19149e-05,1.77197,1.03483
2.26,-0.177182,1.17002,0.831956,5.56214e-05,1.77044,1.03569
2.27,-0.50827,1.16736,0.835384,4.56287e-05,1.77442,1.03567
2.28,-0.831133,1.15676,0.842082,-0,1.78538,1.03263
2.29,-1.14238,1.14063,0.85195,-0,1.80259,1.02804
2.3,-1.42837,1.12154,0.864818,-0,1.82438,1.02306
2.31,-1.67605,1.10052,0.880374,1.19715e-05,1.84964,1.01778
2.32,-1.87243,1.0798,0.898154,-0,1.87571,1.01269
2.33,-2.01554,1.0611,0.917628,-0,1.90121,1.00869
2.34,-2.108,1.04368,0.938278,0.000185884,1.92734,1.00566
2.35,-2.15438,1.02837,0.959615,0.000185953,1.95184,1.00351
2.36,-2.16163,1.01485,0.981216,0.000186225,1.97554,1.00234
2.37,-2.14048,1.00176,1.00274,0.000186939,1.99926,1.0013
2.38,-2.0977,0.993152,1.02394,0.00706174,2.02182,1.00048
2.39,-2.04315,0.99462,1.04464,0.0324079,2.04253,0.999655
2.4,-1.98913,0.997613,1.06479,0.0607309,2.06321,0.998848
2.41,-1.94954,1.00057,1.08447,0.0878667,2.08334,0.998301
2.42,-1.92402,1.00176,1.10382,0.113171,2.10402,0.997173
2.43,-1.90668,1.0062,1.12297,0.136704,2.12369,0.999653
2.44,-1.89369,1.01341,1.14196,0.159084,2.1398,1.00364
2.45,-1.88256,1.01616,1.16084,0.180477,2.16204,1.00679
2.46,-1.87052,1.02228,1.17961,0.199449,2.17321,1.00887
2.47,-1.86273,1.03234,1.19827,0.217723,2.17481,1.01019
2.48,-1.85362,1.03585,1.21685,0.235146,2.18486,1.0098
2.49,-1.84711,1.03412,1.23535,0.251919,2.20559,1.01016
2.5,-1.85083,1.0307,1.25383,0.271776,2.23209,1.01024
2.51,-1.86354,1.01983,1.27239,0.284286,2.26013,1.00752
2.52,-1.87939,1.01201,1.2911,0.303255,2.28619,1.00337
2.53,-1.89243,1.00522,1.30997,0.321763,2.31124,0.999924
2.54,-1.89228,0.994634,1.32891,0.328724,2.33424,0.997378
2.55,-1.87171,0.987018,1.34774,0.334155,2.35297,0.996302
2.56,-1.83814,0.985704,1.3663,0.347961,2.37113,0.997122
2.57,-1.79796,0.989679,1.38448,0.370931,2.386,0.997135
2.58,-1.75661,0.993777,1.40225,0.398687,2.40531,0.997066
2.59,-1.71804,1.00283,1.41962,0.42531,2.41665,0.998489
2.6,-1.68487,1.01067,1.43663,0.448791,2.43153,1.00195
2.61,-1.66003,1.01465,1.45334,0.470598,2.45212,1.00527
2.62,-1.63741,1.01939,1.46983,0.488184,2.4666,1.00839
2.63,-1.6193,1.02557,1.48611,0.504524,2.473,1.0094
2.64,-1.60505,1.02771,1.50223,0.515604,2.47831,1.00854
2.65,-1.59113,1.02818,1.51821,0.531495,2.49143,1.00758
2.66,-1.58111,1.02319,1.53407,0.543829,2.51257,1.0072
2.67,-1.57834,1.0132,1.54986,0.553081,2.53731,1.00521
2.68,-1.57927,1.0046,1.56564,0.568625,2.564,1.00227
2.69,-1.57799,0.998759,1.58143,0.586275,2.58632,0.998783
2.7,-1.57043,0.991477,1.59718,0.598837,2.60718,0.995611
2.71,-1.55243,0.984727,1.6128,0.604888,2.62467,0.994468
2.72,-1.52475,0.984435,1.62819,0.612172,2.63507,0.995705
2.73,-1.49196,0.986875,1.64328,0.627963,2.64862,0.99707
2.74,-1.4547,0.992318,1.65801,0.649303,2.66076,0.998002
2.75,-1.41557,1.00319,1.67236,0.67448,2.6677,0.999786
2.76,-1.37939,1.01213,1.68633,0.697323,2.67722,1.00196
2.77,-1.35053,1.01664,1.69998,0.716133,2.69305,1.00491
2.78,-1.32769,1.02123,1.71336,0.734026,2.70813,1.00801
2.79,-1.30864,1.02226,1.72654,0.743994,2.71832,1.00914
2.8,-1.2941,1.02211,1.73955,0.751989,2.72361,1.0076
2.81,-1.28079,1.02128,1.75243,0.762839,2.73262,1.00585
2.82,-1.26793,1.01606,1.76517,0.77045,2.74681,1.00405
2.83,-1.25827,1.00547,1.77779,0.775412,2.76867,1.00208
2.84,-1.25185,0.997473,1.79034,0.785,2.79025,1.00009
2.85,-1.24394,0.992026,1.80282,0.79933,2.81045,0.997544
2.86,-1.22912,0.986717,1.81519,0.813883,2.82997,0.994654
2.87,-1.20864,0.984481,1.82739,0.822762,2.84155,0.993731
2.88,-1.18177,0.985709,1.83935,0.829958,2.84887,0.99503
2.89,-1.15099,0.987969,1.85101,0.83811,2.8567,0.997153
2.9,-1.11842,0.994657,1.86236,0.853921,2.86368,0.999513
2.91,-1.08443,1.00491,1.87338,0.874073,2.86731,1.00151
2.92,-1.05147,1.01348,1.88405,0.89216,2.87156,1.00304
2.93,-1.0243,1.01959,1.89442,0.910666,2.882,1.00498
2.94,-1.00423,1.02185,1.90456,0.924642,2.89617,1.00731
2.95,-0.987484,1.02012,1.91452,0.931547,2.90789,1.00805
2.96,-0.971848,1.01664,1.92431,0.935682,2.91609,1.00668
2.97,-0.959166,1.01403,1.93397,0.940888,2.92135,1.00412
2.98,-0.945407,1.008,1.94349,0.945018,2.93184,1.00136
2.99,-0.931518,0.998819,1.95288,0.947106,2.94756,0.999044
3,-0.918396,0.991505,1.96212,0.950931,2.96357,0.99777
3.01,-0.905391,0.986581,1.97124,0.961295,2.98092,0.996261
3.02,-0.886766,0.983569,1.98021,0.973747,2.99602,0.994525
3.03,-0.862454,0.985055,1.98896,0.986071,3.00437,0.99407
3.04,-0.836329,0.988552,1.99746,0.993847,3.00751,0.995303
3.05,-0.808175,0.992285,2.00568,0.99904,3.01,0.997722
3.06,-0.780375,0.998874,2.01362,1.00914,3.013,1.0008
3.07,-0.751505,1.00751,2.02128,1.02178,3.01345,1.00332
3.08,-0.725091,1.01486,2.02866,1.03538,3.01471,1.00438
3.09,-0.700774,1.02002,2.03579,1.04942,3.02056,1.0053
3.1,-0.681799,1.0217,2.0427,1.06061,3.0305,1.00632
3.11,-0.667722,1.01719,2.04945,1.06552,3.04446,1.00648
3.12,-0.653942,1.01169,2.05605,1.06591,3.0528,1.00506
3.13,-0.642529,1.00683,2.06254,1.06636,3.05785,1.00255
3.14,-0.628599,1.00023,2.0689,1.06708,3.0652,0.99929
3.15,-0.611031,0.993218,2.07509,1.06632,3.07384,0.99695
3.16,-0.595514,0.987968,2.08113,1.06836,3.08425,0.995818
3.17,-0.579544,0.983525,2.08701,1.07195,3.09588,0.995293
3.18,-0.55799,0.983277,2.0927,1.08292,3.1067,0.994966
3.19,-0.532743,0.987186,2.09815,1.09605,3.11249,0.9953
3.2,-0.508407,0.991989,2.10336,1.10345,3.11252,0.996485
3.21,-0.483455,0.997735,2.10832,1.10869,3.11085,0.998816
3.22,-0.457541,1.00418,2.11303,1.11388,3.10953,1.00199
3.23,-0.431441,1.01031,2.11747,1.12053,3.10873,1.00436
3.24,-0.409204,1.01522,2.12167,1.12722,3.10801,1.00547
3.25,-0.388417,1.01937,2.12566,1.13562,3.10847,1.00553
3.26,-0.368849,1.01862,2.12944,1.14318,3.11677,1.00517
3.27,-0.352233,1.01363,2.13305,1.1469,3.12858,1.00435
3.28,-0.339744,1.00681,2.1365,1.14438,3.13725,1.00323
3.29,-0.328078,1.00009,2.13985,1.14059,3.14205,1.00082
3.3,-0.313838,0.993797,2.14306,1.1377,3.146,0.997924
3.31,-0.29666,0.989757,2.14612,1.13772,3.14943,0.995552
3.32,-0.278392,0.985794,2.14899,1.13562,3.1535,0.994606
3.33,-0.257896,0.983583,2.15168,1.13527,3.15814,0.994829
3.34,-0.236982,0.985054,2.15415,1.14293,3.16492,0.995885
3.35,-0.216735,0.989699,2.15642,1.1532,3.16793,0.996989
3.36,-0.195402,0.996022,2.15848,1.16128,3.16593,0.998339
3.37,-0.170659,1.0034,2.16031,1.16587,3.16024,1.00057
3.38,-0.146988,1.00956,2.1619,1.1687,3.156,1.00315
3.39,-0.125476,1.01367,2.16326,1.1704,3.15392,1.00531
3.4,-0.103744,1.01665,2.16441,1.17054,3.14977,1.00609
3.41,-0.0862169,1.01726,2.16535,1.17211,3.14963,1.00582
3.42,-0.074082,1.01532,2.16615,1.17513,3.15353,1.00436
3.43,-0.0626226,1.00952,2.16683,1.17587,3.16253,1.00278
3.44,-0.0478236,1.00268,2.16739,1.17341,3.16988,1.00091
3.45,-0.0297039,0.994989,2.16778,1.16677,3.17466,0.998917
3.46,-0.0119707,0.989108,2.16799,1.16185,3.17674,0.996473
3.47,0.00800709,0.98554,2.16801,1.15771,3.1767,0.994897
