time,velocity,ratio,centerX,Xmax,Xmin,Ymax
0,0,0.99998,1.1,0.1,2.1,0.99998
0.01,0.0155351,1.00005,1.09992,0.10002,2.0999,0.999988
0.02,0.0309104,1.00017,1.09969,0.0999382,2.09962,1.00001
0.03,0.0457006,1.00038,1.09931,0.099794,2.09915,1.00006
0.04,0.0598726,1.00064,1.09878,0.0995241,2.09853,1.00014
0.05,0.073881,1.00093,1.09811,0.0991045,2.09773,1.00025
0.06,0.0873051,1.00122,1.09731,0.0984937,2.0968,1.00037
0.07,0.100553,1.00153,1.09637,0.0977514,2.09566,1.00048
0.08,0.113065,1.00184,1.0953,0.096864,2.09433,1.00057
0.09,0.126267,1.00206,1.0941,0.0957904,2.09292,1.00062
0.1,0.138868,1.00222,1.09278,0.0945725,2.09144,1.00065
0.11,0.151211,1.00226,1.09133,0.0931731,2.08996,1.00065
0.12,0.162963,1.0022,1.08976,0.0916074,2.08846,1.00062
0.13,0.174146,1.00198,1.08807,0.0897578,2.08696,1.00058
0.14,0.186109,1.00171,1.08627,0.0877023,2.08537,1.00054
0.15,0.198551,1.00151,1.08435,0.0857526,2.08366,1.00047
0.16,0.211826,1.0013,1.0823,0.0837482,2.08189,1.00037
0.17,0.225476,1.00114,1.08011,0.0814669,2.07976,1.00029
0.18,0.238627,1.00107,1.07779,0.079021,2.07738,1.00025
0.19,0.251123,1.00089,1.07535,0.0764518,2.07519,1.00026
0.2,0.263426,1.00099,1.07277,0.0738091,2.07226,1.00022
0.21,0.275827,1.00102,1.07008,0.0712196,2.06967,1.00024
0.22,0.288421,1.0012,1.06726,0.0684964,2.06673,1.00031
0.23,0.301143,1.0016,1.06431,0.0660571,2.0636,1.00037
0.24,0.312642,1.00174,1.06124,0.0629085,2.06044,1.00051
0.25,0.323279,1.00211,1.05806,0.0599815,2.05698,1.0006
0.26,0.333623,1.00246,1.05478,0.0570736,2.05344,1.00064
0.27,0.343735,1.00277,1.05139,0.0540459,2.05003,1.00076
0.28,0.353363,1.00311,1.04791,0.0511007,2.0465,1.00081
0.29,0.362112,1.00344,1.04433,0.0478196,2.04282,1.00093
0.3,0.370218,1.00369,1.04067,0.0442304,2.03876,1.00094
0.31,0.378071,1.00381,1.03693,0.0406159,2.03495,1.00097
0.32,0.386453,1.00377,1.0331,0.0369537,2.03148,1.00102
0.33,0.393995,1.00408,1.0292,0.0335388,2.02752,1.00105
0.34,0.401093,1.00426,1.02523,0.0298797,2.02341,1.00101
0.35,0.408102,1.0043,1.02118,0.0259662,2.01934,1.00097
0.36,0.414924,1.0044,1.01707,0.0221499,2.0152,1.00091
0.37,0.420448,1.00462,1.01289,0.0184967,2.01126,1.00098
0.38,0.425603,1.00505,1.00866,0.0150903,2.00706,1.00102
0.39,0.430478,1.00569,1.00438,0.0118924,2.0027,1.00106
0.4,0.43424,1.00631,1.00006,0.00862712,1.99832,1.00112
0.41,0.436198,1.00728,0.995705,0.00565591,1.99357,1.00119
0.42,0.436714,1.00704,0.991341,0.00014734,1.98883,1.00134
0.43,0.435564,1.00947,0.986978,6.7847e-07,1.98428,1.00154
0.44,0.431665,1.01204,0.982641,1.81476e-08,1.97976,1.0018
0.45,0.424801,1.01484,0.978356,1.56858e-08,1.97489,1.0021
0.46,0.415127,1.01765,0.974154,1.01578e-09,1.97008,1.00242
0.47,0.401281,1.02041,0.970068,2.53828e-08,1.96531,1.00271
0.48,0.38214,1.02321,0.966146,7.26505e-08,1.96073,1.00312
0.49,0.358001,1.02624,0.962441,2.0003e-08,1.9562,1.00376
0.5,0.32955,1.02925,0.958999,3.01531e-09,1.9519,1.00449
0.51,0.296395,1.03203,0.955865,8.46823e-09,1.94804,1.00522
0.52,0.259187,1.03497,0.953083,1.54015e-08,1.94382,1.0059
0.53,0.218715,1.0377,0.950691,-0,1.93989,1.00652
0.54,0.176454,1.04011,0.948712,-0,1.93632,1.00699
0.55,0.132978,1.04174,0.947163,3.91822e-08,1.93393,1.00732
0.56,0.088705,1.04267,0.946052,6.48625e-10,1.93262,1.00755
0.57,0.0443839,1.04305,0.945385,1.82956e-09,1.93207,1.00763
0.58,0.000674149,1.04268,0.945159,3.0068e-09,1.93256,1.00752
0.59,-0.0421256,1.04168,0.945365,4.27837e-09,1.93383,1.00722
0.6,-0.0831399,1.04033,0.945991,5.81283e-09,1.93563,1.00685
0.61,-0.122523,1.03877,0.947019,7.43495e-09,1.93769,1.00641
0.62,-0.1607,1.03721,0.948434,8.67139e-09,1.93965,1.00592
0.63,-0.197835,1.03554,0.950224,9.43011e-09,1.94184,1.00543
0.64,-0.233788,1.03392,0.952384,1.02389e-08,1.94409,1.00502
0.65,-0.265503,1.03221,0.954882,1.16332e-08,1.9466,1.00465
0.66,-0.292128,1.03013,0.957672,1.33012e-08,1.95,1.00438
0.67,-0.31439,1.02792,0.960705,1.50656e-08,1.95364,1.00409
0.68,-0.333874,1.02572,0.963945,-0,1.95733,1.00383
0.69,-0.351571,1.02342,0.967372,1.87529e-08,1.96116,1.00354
0.7,-0.366322,1.02084,0.970963,2.19831e-08,1.96554,1.00325
0.71,-0.376789,1.0183,0.97468,-0,1.96995,1.003
0.72,-0.382555,1.01566,0.978477,3.62384e-09,1.97441,1.00266
0.73,-0.385094,1.01304,0.982317,2.42813e-07,1.9786,1.0022
0.74,-0.383961,1.01052,0.986163,-0,1.98262,1.00174
0.75,-0.379021,1.00777,0.989979,-0,1.9871,1.00127
0.76,-0.370289,1.00521,0.993727,0.000206858,1.99143,1.0008
0.77,-0.358085,1.00221,0.997371,-0,1.99641,1.00041
0.78,-0.342832,0.999447,1.00088,-0,2.00121,1.00005
0.79,-0.325536,0.996946,1.00422,-0,2.00529,0.999581
0.8,-0.305832,0.994737,1.00738,-0,2.00883,0.999129
0.81,-0.284434,0.994869,1.01033,0.0045764,2.01248,0.998799
0.82,-0.262433,0.994391,1.01306,0.00691212,2.01544,0.998629
0.83,-0.240109,0.994292,1.01557,0.00951924,2.01817,0.998593
0.84,-0.217425,0.994611,1.01786,0.0121684,2.02026,0.998635
0.85,-0.19493,0.995067,1.01992,0.0146868,2.02193,0.998672
0.86,-0.173431,0.995955,1.02176,0.0176358,2.02333,0.99879
0.87,-0.153067,0.997344,1.02339,0.021003,2.02453,0.999101
0.88,-0.135066,0.999008,1.02483,0.024305,2.02548,0.999593
0.89,-0.119676,1.00046,1.0261,0.027181,2.02645,1.00009
0.9,-0.1067,1.00194,1.02723,0.02965,2.02695,1.00058
0.91,-0.095849,1.00358,1.02824,0.0317423,2.02678,1.00109
0.92,-0.0863085,1.00517,1.02915,0.0337622,2.02654,1.00154
0.93,-0.0774501,1.00631,1.02997,0.035335,2.02645,1.00184
0.94,-0.0688924,1.00689,1.0307,0.0363566,2.02669,1.00202
0.95,-0.0602972,1.00713,1.03134,0.0370007,2.02696,1.00207
0.96,-0.0514578,1.00685,1.0319,0.0372305,2.02756,1.00198
0.97,-0.042106,1.00588,1.03237,0.036997,2.02869,1.0017
0.98,-0.032177,1.00449,1.03274,0.0366218,2.0302,1.00126
0.99,-0.0183144,1.00299,1.033,0.036282,2.03186,1.00078
1,-0.00903912,1.00142,1.03313,0.0357289,2.03351,1.00031
1.01,0.00617011,1.00009,1.03314,0.0346445,2.03431,0.999919
