time,velocity,ratio,centerX,Xmax,Xmin,Ymax
0,0,1,7.25,6.25,8.25,1
0.01,0.0196955,0.999998,7.2499,6.2499,8.2499,0.999997
0.02,0.0390427,1.00005,7.24961,6.24965,8.24957,1.00001
0.03,0.0579569,1.00008,7.24912,6.24918,8.24907,1.00003
0.04,0.0764276,1.00012,7.24845,6.24853,8.24837,1.00004
0.05,0.0944296,1.00015,7.2476,6.2477,8.2475,1.00005
0.06,0.111975,1.00015,7.24657,6.24667,8.24646,1.00005
0.07,0.129193,1.00015,7.24537,6.24547,8.24524,1.00004
0.08,0.146106,1.00011,7.24399,6.24408,8.24389,1.00002
0.09,0.162804,1.00005,7.24245,6.24252,8.24237,0.99998
0.1,0.179658,1.00001,7.24074,6.24079,8.2407,0.999966
0.11,0.196585,0.999951,7.23886,6.23884,8.23891,0.999989
0.12,0.213255,0.999987,7.23681,6.23679,8.23686,1.00002
0.13,0.229613,1.00007,7.23459,6.23465,8.23457,1.00003
0.14,0.245502,1.00019,7.23222,6.23237,8.23208,1.00005
0.15,0.260889,1.00023,7.22969,6.22987,8.22951,1.00005
0.16,0.27577,1.00023,7.227,6.22717,8.22683,1.00006
0.17,0.290857,1.00026,7.22417,6.22437,8.22398,1.00007
0.18,0.306195,1.00019,7.22119,6.22133,8.2211,1.00008
0.19,0.321154,1.00018,7.21805,6.21817,8.21799,1.00009
0.2,0.335306,1.00016,7.21477,6.21489,8.21467,1.00005
0.21,0.348945,1.00016,7.21135,6.21151,8.21121,1.00001
0.22,0.362818,1.00015,7.20779,6.20793,8.20765,1.00001
0.23,0.37696,1.00007,7.20409,6.2041,8.2041,1.00007
0.24,0.390294,1.00016,7.20026,6.20036,8.20022,1.00008
0.25,0.403041,1.00024,7.19629,6.19652,8.19608,1.00002
0.26,0.415884,1.00035,7.1922,6.19251,8.19192,1.00005
0.27,0.429191,1.00024,7.18797,6.18813,8.18789,1.00012
0.28,0.441417,1.00028,7.18362,6.18374,8.18347,1.00014
0.29,0.453284,1.00036,7.17915,6.1794,8.17884,1.00008
0.3,0.465745,1.0004,7.17456,6.17493,8.17426,1.00007
0.31,0.477778,1.00024,7.16984,6.17,8.16976,1.00012
0.32,0.489047,1.00017,7.165,6.16505,8.16493,1.00011
0.33,0.500694,1.00034,7.16006,6.16033,8.1598,1.00007
0.34,0.512503,1.00032,7.15499,6.15528,8.15478,1.00007
0.35,0.523317,1.00026,7.14981,6.14995,8.1496,1.00009
0.36,0.534374,1.00029,7.14453,6.14467,8.14435,1.00013
0.37,0.545563,1.00036,7.13913,6.13944,8.13895,1.00011
0.38,0.555936,1.00046,7.13362,6.13397,8.13322,1.00008
0.39,0.566634,1.00042,7.12801,6.12829,8.12771,1.00013
0.4,0.577326,1.00038,7.12229,6.12258,8.12215,1.00017
0.41,0.587184,1.00044,7.11647,6.11673,8.11611,1.00013
0.42,0.597731,1.00044,7.11054,6.11085,8.11019,1.00011
0.43,0.607641,1.0004,7.10452,6.10488,8.10433,1.00012
0.44,0.617301,1.00036,7.09839,6.09857,8.09814,1.00014
0.45,0.627368,1.00034,7.09217,6.09239,8.09196,1.00013
0.46,0.636551,1.00045,7.08585,6.08624,8.08556,1.00011
0.47,0.646292,1.00045,7.07944,6.07973,8.07908,1.00013
0.48,0.655189,1.00045,7.07293,6.07324,8.07267,1.00017
0.49,0.664234,1.00051,7.06633,6.0667,8.06601,1.00017
0.5,0.673411,1.00052,7.05965,6.06,8.05928,1.00016
0.51,0.681914,1.0006,7.05287,6.05329,8.05244,1.00017
0.52,0.69106,1.00049,7.046,6.04637,8.04573,1.00017
0.53,0.699387,1.00053,7.03905,6.03941,8.03869,1.00018
0.54,0.708229,1.00053,7.03202,6.03237,8.03162,1.00016
0.55,0.716492,1.0005,7.02489,6.02529,8.02458,1.00014
0.56,0.724781,1.00055,7.01769,6.01806,8.0173,1.00017
0.57,0.732863,1.00043,7.0104,6.01069,8.01014,1.00016
0.58,0.740988,1.00059,7.00303,6.00345,8.00262,1.00018
0.59,0.74913,1.00052,6.99558,5.99596,7.99524,1.00016
0.6,0.756847,1.00065,6.98805,5.98848,7.98759,1.0002
0.61,0.764873,1.00059,6.98044,5.98086,7.9801,1.00021
0.62,0.772451,1.00068,6.97276,5.97322,7.97229,1.00021
0.63,0.780259,1.00066,6.96499,5.96546,7.96455,1.00021
0.64,0.78761,1.00066,6.95715,5.95762,7.95671,1.0002
0.65,0.795219,1.00062,6.94924,5.94967,7.94885,1.00022
0.66,0.80239,1.00062,6.94125,5.94166,7.94082,1.0002
0.67,0.809706,1.00061,6.93319,5.93363,7.93281,1.0002
0.68,0.816709,1.00065,6.92506,5.92551,7.92462,1.0002
0.69,0.823767,1.0006,6.91686,5.91727,7.91648,1.00021
0.7,0.830493,1.0007,6.90859,5.90906,7.9081,1.00022
0.71,0.837239,1.00067,6.90025,5.90073,7.89983,1.00022
0.72,0.844097,1.0008,6.89184,5.89239,7.89127,1.00024
0.73,0.850433,1.00073,6.88337,5.8839,7.88291,1.00023
0.74,0.857282,1.00081,6.87483,5.87538,7.87427,1.00025
0.75,0.863472,1.00077,6.86623,5.86679,7.86572,1.00023
0.76,0.870213,1.00078,6.85756,5.8581,7.85703,1.00024
0.77,0.876352,1.00075,6.84883,5.84938,7.84834,1.00023
0.78,0.882776,1.00071,6.84003,5.8405,7.83956,1.00024
0.79,0.888867,1.00075,6.83117,5.83171,7.83068,1.00024
0.8,0.894852,1.0007,6.82225,5.82274,7.82181,1.00024
0.81,0.901059,1.00081,6.81328,5.81384,7.81273,1.00025
0.82,0.906736,1.00077,6.80424,5.80477,7.80373,1.00025
0.83,0.912787,1.00086,6.79514,5.79575,7.79457,1.00027
0.84,0.918275,1.00087,6.78599,5.7866,7.78538,1.00027
0.85,0.924177,1.00085,6.77677,5.77736,7.77622,1.00028
0.86,0.929885,1.0009,6.7675,5.76814,7.76691,1.00028
0.87,0.935268,1.00081,6.75818,5.75874,7.75766,1.00027
0.88,0.941152,1.00089,6.7488,5.74942,7.7482,1.00027
0.89,0.946234,1.00085,6.73936,5.73995,7.73878,1.00027
0.9,0.951762,1.00083,6.72987,5.73045,7.72934,1.00027
0.91,0.957225,1.00089,6.72032,5.72095,7.71972,1.00028
0.92,0.962282,1.00082,6.71073,5.7113,7.7102,1.00027
0.93,0.967679,1.00092,6.70108,5.70174,7.70046,1.00028
0.94,0.972625,1.00091,6.69138,5.692,7.69076,1.00029
0.95,0.977714,1.00089,6.68162,5.68224,7.68105,1.0003
0.96,0.982924,1.00099,6.67182,5.67253,7.67114,1.0003
0.97,0.987724,1.00092,6.66197,5.66259,7.66137,1.00031
0.98,0.992846,1.00097,6.65206,5.65276,7.65143,1.0003
0.99,0.997798,1.00098,6.64211,5.64279,7.64145,1.00031
1,1.00236,1.0009,6.63211,5.63274,7.63156,1.0003
1.01,1.00718,1.00099,6.62206,5.62279,7.62139,1.00029
1.02,1.01179,1.00095,6.61197,5.61261,7.61134,1.00032
1.03,1.01628,1.00091,6.60183,5.60248,7.60126,1.0003
1.04,1.02104,1.00102,6.59164,5.59238,7.59094,1.0003
1.05,1.02538,1.00097,6.58141,5.58205,7.58077,1.00033
1.06,1.02973,1.00098,6.57113,5.57185,7.57051,1.00031
1.07,1.03436,1.00107,6.56081,5.56157,7.56009,1.00033
1.08,1.03858,1.001,6.55045,5.5511,7.5498,1.00035
1.09,1.04276,1.00102,6.54004,5.54079,7.53938,1.00031
1.1,1.04747,1.00106,6.52959,5.53033,7.52887,1.00033
1.11,1.05166,1.001,6.5191,5.51975,7.51845,1.00035
1.12,1.05568,1.00101,6.50856,5.50931,7.5079,1.00031
1.13,1.06021,1.00105,6.49798,5.49871,7.49727,1.00033
1.14,1.064,1.00103,6.48736,5.48805,7.48669,1.00035
1.15,1.06781,1.00105,6.4767,5.47747,7.47601,1.00032
1.16,1.07192,1.0011,6.466,5.46677,7.46528,1.00036
1.17,1.0758,1.00109,6.45526,5.45598,7.45454,1.00037
1.18,1.07952,1.00111,6.44449,5.44529,7.44376,1.00034
1.19,1.08348,1.00112,6.43367,5.43447,7.43294,1.00036
1.2,1.08734,1.0011,6.42282,5.42355,7.4221,1.00037
1.21,1.09097,1.0011,6.41193,5.41271,7.41121,1.00035
1.22,1.09468,1.00109,6.401,5.40179,7.40029,1.00034
1.23,1.09848,1.00112,6.39003,5.39078,7.38928,1.00037
1.24,1.10189,1.00111,6.37903,5.37979,7.37831,1.00036
1.25,1.10535,1.0011,6.368,5.36879,7.36729,1.00034
1.26,1.10898,1.00116,6.35692,5.35773,7.35616,1.00037
1.27,1.11242,1.00115,6.34582,5.34659,7.34506,1.00039
1.28,1.11566,1.00116,6.33468,5.33551,7.33392,1.00037
1.29,1.11927,1.00119,6.3235,5.32435,7.32273,1.00037
1.3,1.1228,1.00119,6.31229,5.31307,7.31149,1.00039
1.31,1.12602,1.00119,6.30105,5.30187,7.30027,1.00039
1.32,1.12932,1.00115,6.28977,5.29061,7.28904,1.00036
1.33,1.13288,1.00118,6.27846,5.27928,7.27769,1.00038
1.34,1.13618,1.00117,6.26712,5.2679,7.26633,1.00039
1.35,1.13921,1.00117,6.25574,5.25658,7.25498,1.00037
1.36,1.14247,1.00118,6.24433,5.24518,7.24356,1.00037
1.37,1.14572,1.00122,6.23289,5.23371,7.23207,1.0004
1.38,1.14875,1.00123,6.22142,5.22225,7.22061,1.00041
1.39,1.15176,1.00122,6.20991,5.21081,7.20915,1.00039
1.4,1.15483,1.00125,6.19838,5.19927,7.19757,1.00039
1.41,1.15791,1.00125,6.18682,5.18764,7.18596,1.00042
1.42,1.16086,1.00126,6.17523,5.17609,7.1744,1.00041
1.43,1.16369,1.00122,6.1636,5.1645,7.16284,1.00039
1.44,1.1667,1.00125,6.15195,5.15282,7.15113,1.0004
1.45,1.16991,1.00125,6.14027,5.14109,7.13942,1.00041
1.46,1.17264,1.00126,6.12856,5.12945,7.12776,1.00041
1.47,1.17532,1.00122,6.11681,5.11771,7.11605,1.00039
1.48,1.17822,1.00126,6.10505,5.10592,7.10421,1.0004
1.49,1.18112,1.00127,6.09325,5.09408,7.09238,1.00042
1.5,1.18376,1.00129,6.08143,5.08234,7.08061,1.00042
1.51,1.18643,1.00125,6.06957,5.07049,7.06878,1.0004
1.52,1.18928,1.00129,6.05769,5.05858,7.05684,1.00041
1.53,1.19207,1.00131,6.04579,5.04665,7.0449,1.00043
1.54,1.19465,1.00131,6.03386,5.03478,7.03302,1.00043
1.55,1.1971,1.00128,6.0219,5.02283,7.0211,1.00041
1.56,1.2,1.00129,6.00991,5.0108,7.00906,1.00041
1.57,1.20281,1.00132,5.9979,4.99877,6.99699,1.00043
1.58,1.20523,1.00132,5.98586,4.98678,6.98501,1.00044
1.59,1.20779,1.00131,5.97379,4.97474,6.97298,1.00042
1.6,1.2102,1.00129,5.9617,4.96262,6.96086,1.00041
1.61,1.21261,1.00135,5.94959,4.9505,6.94868,1.00043
1.62,1.21507,1.00136,5.93745,4.93838,6.93656,1.00045
1.63,1.21723,1.00136,5.92529,4.92627,6.92443,1.00044
1.64,1.21944,1.00132,5.9131,4.91405,6.91226,1.00043
1.65,1.22182,1.00135,5.9009,4.90182,6.89999,1.00043
1.66,1.22419,1.00138,5.88867,4.88961,6.88775,1.00045
1.67,1.22632,1.00138,5.87642,4.87739,6.87555,1.00045
1.68,1.22845,1.00136,5.86414,4.86512,6.86329,1.00044
1.69,1.2306,1.00133,5.85185,4.85278,6.85098,1.00042
1.7,1.23296,1.00138,5.83953,4.84047,6.8386,1.00044
1.71,1.23522,1.00139,5.82719,4.82814,6.82628,1.00046
1.72,1.23731,1.00139,5.81483,4.81581,6.81395,1.00046
1.73,1.23937,1.00137,5.80244,4.80341,6.80157,1.00045
1.74,1.24151,1.00136,5.79004,4.79099,6.78914,1.00044
1.75,1.24382,1.00141,5.77761,4.77858,6.77667,1.00045
1.76,1.24603,1.00141,5.76516,4.76614,6.76426,1.00047
1.77,1.248,1.00141,5.75269,4.7537,6.7518,1.00046
1.78,1.25,1.00139,5.7402,4.74119,6.73931,1.00045
1.79,1.25199,1.00139,5.72769,4.72867,6.72678,1.00044
1.8,1.25395,1.00143,5.71516,4.71615,6.71421,1.00046
1.81,1.25585,1.00144,5.70261,4.70361,6.7017,1.00048
1.82,1.25768,1.00145,5.69005,4.69108,6.68913,1.00047
1.83,1.2595,1.00142,5.67746,4.67846,6.67655,1.00046
1.84,1.26143,1.0014,5.66485,4.66583,6.66393,1.00045
1.85,1.26353,1.00144,5.65223,4.65322,6.65127,1.00046
1.86,1.26547,1.00145,5.63958,4.64058,6.63865,1.00048
1.87,1.26728,1.00145,5.62692,4.62795,6.62601,1.00048
1.88,1.26903,1.00142,5.61424,4.61525,6.61334,1.00047
1.89,1.27087,1.00139,5.60154,4.60251,6.60064,1.00045
1.9,1.27291,1.00144,5.58882,4.58981,6.58785,1.00046
1.91,1.27479,1.00147,5.57608,4.57708,6.57511,1.00048
1.92,1.27658,1.00147,5.56333,4.56435,6.56239,1.00049
1.93,1.27832,1.00146,5.55055,4.55158,6.54962,1.00048
1.94,1.28,1.00142,5.53776,4.53876,6.53685,1.00047
1.95,1.28176,1.00145,5.52495,4.52597,6.52399,1.00046
1.96,1.28364,1.00149,5.51212,4.51315,6.51113,1.00048
1.97,1.28577,1.00147,5.49928,4.50029,6.49833,1.0005
1.98,1.28716,1.00149,5.48641,4.48746,6.48546,1.00049
1.99,1.28864,1.00147,5.47353,4.47456,6.47259,1.00048
2,1.29014,1.00143,5.46064,4.46165,6.45971,1.00046
2.01,1.29167,1.0015,5.44773,4.44878,6.44674,1.00048
2.02,1.29329,1.00151,5.43481,4.43585,6.43382,1.0005
2.03,1.29479,1.00153,5.42187,4.42293,6.42089,1.00051
2.04,1.29626,1.00153,5.40891,4.40999,6.40793,1.0005
2.05,1.29761,1.00149,5.39594,4.39698,6.39499,1.00049
2.06,1.29892,1.00147,5.38296,4.384,6.382,1.00047
2.07,1.30039,1.00151,5.36996,4.37102,6.36897,1.00048
2.08,1.3019,1.00152,5.35695,4.35801,6.35596,1.0005
2.09,1.30331,1.00152,5.34392,4.34499,6.34295,1.0005
2.1,1.30467,1.00152,5.33089,4.33196,6.32991,1.0005
2.11,1.306,1.00148,5.31783,4.31887,6.31688,1.00049
2.12,1.30735,1.00147,5.30476,4.3058,6.3038,1.00047
2.13,1.30887,1.00153,5.29168,4.29275,6.29067,1.00049
2.14,1.31038,1.00154,5.27859,4.27965,6.27759,1.00051
2.15,1.31183,1.00155,5.26548,4.26656,6.26449,1.00052
2.16,1.31306,1.00156,5.25235,4.25345,6.25135,1.00051
2.17,1.31428,1.00152,5.23922,4.24028,6.23825,1.0005
2.18,1.31544,1.00149,5.22607,4.22712,6.22511,1.00049
2.19,1.31674,1.00154,5.2129,4.21399,6.21189,1.00049
2.2,1.31808,1.00157,5.19973,4.20082,6.19871,1.00051
2.21,1.31947,1.00157,5.18654,4.18764,6.18554,1.00052
2.22,1.32069,1.00157,5.17334,4.17445,6.17234,1.00051
2.23,1.32178,1.00153,5.16013,4.1612,6.15916,1.00051
2.24,1.323,1.0015,5.14691,4.14796,6.14595,1.00049
2.25,1.32419,1.00154,5.13367,4.13476,6.13266,1.00048
2.26,1.32535,1.00156,5.12042,4.12151,6.1194,1.0005
2.27,1.32655,1.00157,5.10716,4.10824,6.10615,1.00052
2.28,1.32777,1.00159,5.09389,4.095,6.09288,1.00052
2.29,1.329,1.00158,5.08061,4.08171,6.0796,1.00052
2.3,1.33008,1.00154,5.06731,4.06839,6.06634,1.00051
2.31,1.33133,1.00152,5.054,4.05507,6.05303,1.00049
2.32,1.33274,1.00156,5.04068,4.04177,6.03966,1.0005
2.33,1.33405,1.00157,5.02735,4.02843,6.02632,1.00051
2.34,1.33529,1.00158,5.014,4.01509,6.01298,1.00052
2.35,1.33652,1.00158,5.00065,4.00175,5.99963,1.00052
2.36,1.33742,1.00157,4.98728,3.98838,5.98628,1.00052
2.37,1.33836,1.00155,4.9739,3.97499,5.97293,1.00052
2.38,1.33939,1.00156,4.96051,3.96161,5.95951,1.0005
2.39,1.34037,1.00162,4.94711,3.94825,5.94605,1.00051
2.4,1.34142,1.00164,4.9337,3.93483,5.93263,1.00053
2.41,1.34242,1.00164,4.92028,3.92141,5.91922,1.00054
2.42,1.34332,1.00163,4.90685,3.90799,5.90581,1.00054
2.43,1.34438,1.0016,4.89342,3.89454,5.89241,1.00053
2.44,1.34514,1.00156,4.87997,3.88107,5.87899,1.00052
2.45,1.34601,1.00154,4.86651,3.86761,5.86553,1.0005
2.46,1.34698,1.00158,4.85305,3.85416,5.85201,1.0005
2.47,1.34799,1.0016,4.83957,3.84068,5.83852,1.00052
2.48,1.34899,1.00162,4.82609,3.8272,5.82503,1.00053
2.49,1.34987,1.00163,4.81259,3.81373,5.81155,1.00054
2.5,1.35084,1.00162,4.79909,3.80022,5.79807,1.00054
2.51,1.35164,1.0016,4.78558,3.7867,5.78458,1.00053
2.52,1.35257,1.00159,4.77206,3.77318,5.77105,1.00052
2.53,1.3535,1.00162,4.75853,3.75968,5.75746,1.00051
2.54,1.35444,1.00164,4.74499,3.74613,5.74392,1.00053
2.55,1.35527,1.00165,4.73144,3.73258,5.73037,1.00054
2.56,1.35612,1.00164,4.71788,3.71902,5.71683,1.00054
2.57,1.35703,1.00163,4.70432,3.70546,5.70328,1.00054
2.58,1.35783,1.0016,4.69074,3.69187,5.68973,1.00053
2.59,1.35857,1.00158,4.67716,3.67828,5.67616,1.00052
2.6,1.35941,1.00159,4.66357,3.66469,5.66255,1.00051
2.61,1.36023,1.00163,4.64997,3.65112,5.6489,1.00052
2.62,1.36108,1.00166,4.63636,3.63752,5.63528,1.00054
2.63,1.36191,1.00166,4.62275,3.62389,5.62167,1.00055
2.64,1.36269,1.00166,4.60913,3.61029,5.60807,1.00055
2.65,1.36348,1.00164,4.5955,3.59665,5.59446,1.00055
2.66,1.36456,1.00161,4.58186,3.58297,5.58084,1.00054
2.67,1.36534,1.00159,4.56821,3.56932,5.56719,1.00053
2.68,1.36613,1.0016,4.55455,3.55568,5.5535,1.00051
2.69,1.36715,1.00162,4.54088,3.54202,5.53982,1.00052
2.7,1.36811,1.00164,4.52721,3.52833,5.52614,1.00054
2.71,1.36897,1.00165,4.51352,3.51466,5.51246,1.00055
2.72,1.3698,1.00166,4.49983,3.50098,5.49876,1.00055
2.73,1.37029,1.00166,4.48613,3.4873,5.48508,1.00055
2.74,1.37088,1.00164,4.47242,3.47358,5.4714,1.00055
2.75,1.37148,1.00165,4.45871,3.45987,5.45767,1.00055
2.76,1.37206,1.00166,4.44499,3.44618,5.44392,1.00053
2.77,1.37268,1.00169,4.43127,3.43246,5.43016,1.00054
2.78,1.37333,1.00169,4.41754,3.41871,5.41644,1.00055
2.79,1.37397,1.00167,4.4038,3.40494,5.40272,1.00056
2.8,1.37459,1.00166,4.39006,3.39122,5.38901,1.00055
2.81,1.37513,1.00165,4.37631,3.37747,5.37527,1.00054
2.82,1.37569,1.00162,4.36256,3.3637,5.36155,1.00054
2.83,1.37623,1.00162,4.3488,3.34994,5.34779,1.00054
2.84,1.37688,1.00163,4.33503,3.33618,5.33399,1.00053
2.85,1.37751,1.00168,4.32126,3.32245,5.32015,1.00053
2.86,1.37821,1.0017,4.30748,3.30866,5.30636,1.00055
2.87,1.37891,1.00171,4.29369,3.29487,5.29259,1.00056
2.88,1.37966,1.0017,4.2799,3.28108,5.27882,1.00057
2.89,1.38029,1.00169,4.2661,3.26729,5.26503,1.00056
2.9,1.38092,1.00167,4.2523,3.25348,5.25125,1.00055
2.91,1.38141,1.00165,4.23849,3.23965,5.23746,1.00055
2.92,1.38129,1.00164,4.22467,3.22583,5.22364,1.00054
2.93,1.38211,1.00166,4.21085,3.21203,5.20977,1.00053
2.94,1.38274,1.0017,4.19703,3.19823,5.19592,1.00054
2.95,1.38337,1.00171,4.1832,3.18439,5.18208,1.00056
2.96,1.38399,1.00171,4.16936,3.17054,5.16826,1.00057
2.97,1.38459,1.0017,4.15552,3.1567,5.15443,1.00057
2.98,1.38506,1.00169,4.14167,3.14286,5.1406,1.00056
2.99,1.38553,1.00167,4.12782,3.129,5.12677,1.00056
3,1.386,1.00166,4.11396,3.11513,5.11293,1.00055
3.01,1.38664,1.00165,4.10009,3.10126,5.09905,1.00054
3.02,1.3872,1.00167,4.08622,3.08741,5.08513,1.00053
3.03,1.38795,1.00169,4.07235,3.07353,5.07124,1.00054
3.04,1.38853,1.0017,4.05847,3.05964,5.05736,1.00055
3.05,1.38919,1.0017,4.04458,3.04574,5.04348,1.00056
3.06,1.39006,1.00169,4.03068,3.03184,5.0296,1.00057
3.07,1.3906,1.00169,4.01678,3.01796,5.01571,1.00056
3.08,1.39111,1.00168,4.00287,3.00405,5.00181,1.00056
3.09,1.39149,1.00168,3.98896,2.99014,4.9879,1.00055
3.1,1.39187,1.00168,3.97504,2.97623,4.97398,1.00055
3.11,1.39226,1.0017,3.96112,2.96234,4.96002,1.00054
3.12,1.39272,1.00173,3.94719,2.94841,4.94606,1.00056
3.13,1.39323,1.00174,3.93326,2.93448,4.93212,1.00057
3.14,1.39364,1.00173,3.91933,2.92052,4.91821,1.00057
3.15,1.394,1.00172,3.90539,2.90658,4.9043,1.00057
3.16,1.39439,1.00171,3.89145,2.89265,4.89037,1.00057
3.17,1.39469,1.00169,3.8775,2.87871,4.87645,1.00056
3.18,1.39498,1.00168,3.86356,2.86475,4.86251,1.00056
3.19,1.39527,1.00167,3.8496,2.85079,4.84855,1.00055
3.2,1.39569,1.00169,3.83565,2.83684,4.83455,1.00054
3.21,1.39624,1.00172,3.82169,2.8229,4.82056,1.00055
3.22,1.39674,1.00173,3.80772,2.80892,4.80659,1.00056
3.23,1.39712,1.00173,3.79375,2.79495,4.79264,1.00057
3.24,1.39761,1.00173,3.77978,2.78098,4.77868,1.00058
3.25,1.39797,1.00173,3.7658,2.76703,4.76471,1.00057
3.26,1.39827,1.00173,3.75182,2.75304,4.75074,1.00057
3.27,1.39844,1.00171,3.73784,2.73905,4.73677,1.00057
3.28,1.39874,1.0017,3.72385,2.72505,4.72278,1.00057
3.29,1.39905,1.0017,3.70986,2.71107,4.70878,1.00055
3.3,1.39937,1.00173,3.69587,2.69711,4.69475,1.00054
3.31,1.39987,1.00173,3.68187,2.6831,4.68075,1.00056
3.32,1.40024,1.00173,3.66787,2.66908,4.66676,1.00057
3.33,1.40057,1.00173,3.65387,2.65506,4.65275,1.00057
3.34,1.40085,1.00173,3.63986,2.64107,4.63877,1.00057
3.35,1.4011,1.00173,3.62585,2.62707,4.62477,1.00057
3.36,1.40145,1.00171,3.61184,2.61305,4.61078,1.00057
3.37,1.40171,1.00171,3.59783,2.59903,4.59676,1.00057
3.38,1.40192,1.00171,3.58381,2.58502,4.58273,1.00056
3.39,1.40246,1.00172,3.56979,2.571,4.56867,1.00055
3.4,1.40282,1.00173,3.55576,2.55697,4.55463,1.00055
3.41,1.40322,1.00173,3.54173,2.54293,4.54061,1.00056
3.42,1.40396,1.00173,3.52769,2.52888,4.52657,1.00057
3.43,1.40437,1.00173,3.51365,2.51485,4.51254,1.00057
3.44,1.40485,1.00172,3.4996,2.50082,4.49852,1.00057
3.45,1.40464,1.00173,3.48556,2.48678,4.48447,1.00057
3.46,1.40468,1.00173,3.47151,2.47273,4.47044,1.00058
3.47,1.40477,1.00174,3.45746,2.45869,4.45638,1.00058
3.48,1.4049,1.00175,3.44342,2.44465,4.4423,1.00057
3.49,1.40501,1.00176,3.42936,2.43062,4.42823,1.00056
3.5,1.40515,1.00177,3.41531,2.41657,4.41417,1.00057
3.51,1.4053,1.00177,3.40126,2.40249,4.40011,1.00058
3.52,1.40548,1.00177,3.38721,2.38844,4.38607,1.00058
3.53,1.40558,1.00175,3.37315,2.37437,4.37203,1.00058
3.54,1.40569,1.00173,3.3591,2.36031,4.35801,1.00058
3.55,1.40585,1.00172,3.34504,2.34625,4.34396,1.00057
3.56,1.40505,1.00171,3.33099,2.3322,4.32992,1.00057
3.57,1.40505,1.00172,3.31694,2.31815,4.31585,1.00057
3.58,1.40506,1.00173,3.30288,2.30411,4.30179,1.00057
3.59,1.40513,1.00175,3.28883,2.29008,4.2877,1.00056
3.6,1.40529,1.00177,3.27478,2.27603,4.27363,1.00057
3.61,1.40548,1.00179,3.26073,2.26199,4.25957,1.00058
3.62,1.4056,1.00179,3.24667,2.24792,4.24551,1.00059
3.63,1.40561,1.00178,3.23261,2.23386,4.23148,1.00059
3.64,1.40571,1.00176,3.21856,2.21979,4.21745,1.00059
3.65,1.40581,1.00174,3.2045,2.20574,4.20341,1.00058
3.66,1.40581,1.00173,3.19044,2.19167,4.18937,1.00058
3.67,1.40588,1.00172,3.17638,2.17761,4.17531,1.00057
3.68,1.40591,1.00172,3.16233,2.16354,4.16124,1.00056
3.69,1.40588,1.00174,3.14827,2.1495,4.14714,1.00055
3.7,1.4059,1.00177,3.13421,2.13546,4.13306,1.00057
3.71,1.40609,1.00179,3.12015,2.1214,4.11899,1.00058
3.72,1.40622,1.00179,3.10608,2.10733,4.10493,1.00059
3.73,1.40633,1.00178,3.09202,2.09326,4.09089,1.00059
3.74,1.40662,1.00177,3.07796,2.07919,4.07684,1.00059
3.75,1.40664,1.00175,3.06389,2.06513,4.06279,1.00058
3.76,1.40669,1.00173,3.04983,2.05104,4.04875,1.00058
3.77,1.4067,1.00172,3.03576,2.03697,4.03469,1.00057
3.78,1.407,1.00171,3.02169,2.0229,4.02061,1.00057
3.79,1.40696,1.00174,3.00762,2.00886,4.00649,1.00055
