time,velocity,ratio,centerX,Xmax,Xmin,Ymax
0,0,1,16,15,17,1
0.01,0.0196785,1,15.9999,14.9999,16.9999,1
0.02,0.0389598,1,15.9996,14.9996,16.9996,1
0.03,0.057885,1.00001,15.9991,14.9991,16.9991,0.999999
0.04,0.0763366,1.00002,15.9985,14.9985,16.9984,0.999998
0.05,0.0944414,1.00001,15.9976,14.9976,16.9976,0.999998
0.06,0.11216,1.00002,15.9966,14.9966,16.9966,0.999998
0.07,0.129561,1.00003,15.9954,14.9954,16.9953,0.999999
0.08,0.146635,1.00005,15.994,14.9941,16.994,0.999999
0.09,0.163398,1.00006,15.9925,14.9925,16.9924,0.999997
0.1,0.179839,1.00011,15.9907,14.9908,16.9907,1.00002
0.11,0.196065,1.00016,15.9889,14.989,16.9888,1.00005
0.12,0.211976,1.00022,15.9868,14.987,16.9867,1.00007
0.13,0.227584,1.00028,15.9846,14.9848,16.9845,1.00009
0.14,0.242919,1.00034,15.9823,14.9826,16.9821,1.0001
0.15,0.257954,1.0004,15.9798,14.9801,16.9795,1.00012
0.16,0.27277,1.00046,15.9771,14.9775,16.9768,1.00013
0.17,0.287337,1.00058,15.9743,14.9747,16.974,1.00019
0.18,0.30166,1.00071,15.9714,14.9719,16.9709,1.00024
0.19,0.315753,1.00086,15.9683,14.9689,16.9677,1.00029
0.2,0.329586,1.00103,15.9651,14.9657,16.9644,1.00033
0.21,0.343149,1.00119,15.9617,14.9625,16.9609,1.00036
0.22,0.356494,1.00137,15.9582,14.9591,16.9572,1.00043
0.23,0.369642,1.00157,15.9546,14.9556,16.9535,1.00051
0.24,0.382378,1.00179,15.9508,14.952,16.9496,1.00058
0.25,0.395044,1.002,15.9469,14.9483,16.9455,1.00064
0.26,0.407515,1.00225,15.9429,14.9444,16.9413,1.00071
0.27,0.419861,1.0025,15.9388,14.9404,16.9371,1.00081
0.28,0.431913,1.00277,15.9345,14.9363,16.9326,1.0009
0.29,0.443703,1.00303,15.9302,14.9321,16.928,1.00097
0.3,0.455408,1.00335,15.9257,14.9278,16.9233,1.00108
0.31,0.466823,1.00365,15.9211,14.9234,16.9185,1.00119
0.32,0.478093,1.00395,15.9163,14.9189,16.9136,1.00129
0.33,0.489176,1.00428,15.9115,14.9143,16.9085,1.0014
0.34,0.500139,1.00462,15.9066,14.9095,16.9033,1.00152
0.35,0.510883,1.00495,15.9015,14.9047,16.8981,1.00163
0.36,0.521426,1.00529,15.8964,14.8997,16.8927,1.00174
0.37,0.531843,1.00565,15.8911,14.8947,16.8872,1.00187
0.38,0.542006,1.006,15.8857,14.8896,16.8816,1.00198
0.39,0.552063,1.00635,15.8803,14.8843,16.8759,1.0021
0.4,0.561955,1.00674,15.8747,14.879,16.87,1.00223
0.41,0.571682,1.00707,15.869,14.8736,16.8641,1.00233
0.42,0.581296,1.00741,15.8633,14.868,16.8582,1.00246
0.43,0.590893,1.00777,15.8574,14.8624,16.8521,1.00258
0.44,0.600166,1.0081,15.8514,14.8567,16.8459,1.00267
0.45,0.609379,1.00848,15.8454,14.8509,16.8396,1.00281
0.46,0.618418,1.00883,15.8393,14.845,16.8332,1.00291
0.47,0.627356,1.00916,15.833,14.839,16.8268,1.00302
0.48,0.636102,1.00952,15.8267,14.8329,16.8202,1.00314
0.49,0.644708,1.00982,15.8203,14.8267,16.8136,1.00322
0.5,0.653275,1.01017,15.8138,14.8204,16.8069,1.00336
0.51,0.6615,1.01047,15.8072,14.814,16.8001,1.00345
0.52,0.669827,1.01075,15.8006,14.8076,16.7933,1.00356
0.53,0.678003,1.01106,15.7939,14.801,16.7864,1.00366
0.54,0.686137,1.01132,15.787,14.7944,16.7794,1.00374
0.55,0.694135,1.01162,15.7801,14.7877,16.7723,1.00386
0.56,0.702031,1.01187,15.7732,14.7809,16.7652,1.00392
0.57,0.709804,1.01216,15.7661,14.774,16.758,1.00404
0.58,0.71743,1.0124,15.759,14.767,16.7507,1.0041
0.59,0.724998,1.01269,15.7518,14.76,16.7433,1.0042
0.6,0.732391,1.01292,15.7445,14.7529,16.7358,1.00427
0.61,0.739678,1.01314,15.7371,14.7457,16.7284,1.00436
0.62,0.746902,1.01338,15.7297,14.7384,16.7208,1.00443
0.63,0.754141,1.01361,15.7222,14.7311,16.7131,1.00451
0.64,0.761122,1.01384,15.7146,14.7237,16.7054,1.00458
0.65,0.768216,1.01405,15.7069,14.7162,16.6976,1.00465
0.66,0.77514,1.01425,15.6992,14.7086,16.6898,1.00472
0.67,0.781906,1.01445,15.6914,14.7009,16.6818,1.00478
0.68,0.78866,1.01464,15.6836,14.6932,16.6739,1.00485
0.69,0.79531,1.01481,15.6757,14.6854,16.6659,1.00491
0.7,0.801879,1.015,15.6677,14.6775,16.6578,1.00497
0.71,0.808541,1.01519,15.6596,14.6696,16.6496,1.00504
0.72,0.814923,1.01537,15.6515,14.6616,16.6414,1.0051
0.73,0.821262,1.01556,15.6433,14.6535,16.6331,1.00516
0.74,0.827489,1.01572,15.6351,14.6454,16.6247,1.00521
0.75,0.833586,1.01594,15.6268,14.6372,16.6163,1.00528
0.76,0.839656,1.01607,15.6184,14.629,16.6079,1.00532
0.77,0.845672,1.01625,15.61,14.6207,16.5993,1.0054
0.78,0.851555,1.01642,15.6015,14.6123,16.5907,1.00543
0.79,0.857419,1.01664,15.593,14.6039,16.582,1.00552
0.8,0.863187,1.01681,15.5844,14.5954,16.5733,1.00557
0.81,0.86888,1.01702,15.5757,14.5869,16.5645,1.00564
0.82,0.874508,1.01721,15.567,14.5783,16.5556,1.0057
0.83,0.880109,1.01738,15.5582,14.5696,16.5468,1.00576
0.84,0.885665,1.01756,15.5494,14.5609,16.5378,1.00583
0.85,0.891087,1.01773,15.5405,14.5521,16.5288,1.00588
0.86,0.896447,1.01796,15.5316,14.5433,16.5197,1.00596
0.87,0.901786,1.01812,15.5226,14.5344,16.5106,1.006
0.88,0.907029,1.01835,15.5135,14.5255,16.5015,1.00609
0.89,0.912217,1.01857,15.5044,14.5166,16.4922,1.00615
0.9,0.917275,1.01876,15.4953,14.5076,16.4829,1.00622
0.91,0.922208,1.01896,15.4861,14.4985,16.4736,1.0063
0.92,0.927078,1.01916,15.4769,14.4894,16.4642,1.00635
0.93,0.932031,1.01943,15.4676,14.4803,16.4548,1.00645
0.94,0.936774,1.01965,15.4582,14.4711,16.4453,1.00651
0.95,0.941561,1.01987,15.4488,14.4618,16.4358,1.00659
0.96,0.946316,1.02013,15.4394,14.4525,16.4261,1.00667
0.97,0.950922,1.02029,15.4299,14.4432,16.4166,1.00671
0.98,0.955493,1.02055,15.4204,14.4338,16.4069,1.00681
0.99,0.960044,1.02078,15.4108,14.4244,16.3971,1.00688
1,0.964498,1.021,15.4012,14.4149,16.3874,1.00695
1.01,0.968912,1.02125,15.3915,14.4054,16.3775,1.00704
1.02,0.973224,1.02145,15.3818,14.3958,16.3677,1.00709
1.03,0.977496,1.02169,15.372,14.3862,16.3578,1.00719
1.04,0.981689,1.02189,15.3622,14.3766,16.3479,1.00726
1.05,0.985824,1.02209,15.3524,14.3669,16.338,1.00731
1.06,0.989969,1.02235,15.3425,14.3572,16.3279,1.00741
1.07,0.993886,1.02255,15.3326,14.3474,16.3179,1.00747
1.08,0.998036,1.02275,15.3227,14.3376,16.3078,1.00754
1.09,1.00214,1.02299,15.3127,14.3277,16.2977,1.00762
1.1,1.00608,1.02314,15.3026,14.3178,16.2875,1.00767
1.11,1.0101,1.02335,15.2925,14.3078,16.2773,1.00774
1.12,1.01394,1.02356,15.2824,14.2978,16.2671,1.00781
1.13,1.01778,1.02372,15.2723,14.2878,16.2568,1.00785
1.14,1.02165,1.02392,15.2621,14.2777,16.2465,1.00793
1.15,1.02551,1.02413,15.2518,14.2676,16.2361,1.00799
1.16,1.02923,1.02425,15.2416,14.2575,16.2258,1.00803
1.17,1.03274,1.02445,15.2312,14.2473,16.2154,1.00811
1.18,1.0363,1.02465,15.2209,14.2371,16.2049,1.00816
1.19,1.03986,1.02479,15.2105,14.2268,16.1944,1.00819
1.2,1.04344,1.02498,15.2001,14.2165,16.1839,1.00827
1.21,1.04696,1.02515,15.1897,14.2062,16.1734,1.00832
1.22,1.05037,1.02525,15.1792,14.1958,16.1628,1.00835
1.23,1.05378,1.02542,15.1686,14.1854,16.1522,1.00842
1.24,1.0572,1.02559,15.1581,14.1749,16.1415,1.00847
1.25,1.06051,1.0257,15.1475,14.1644,16.1309,1.00849
1.26,1.0638,1.02586,15.1369,14.1539,16.1202,1.00856
1.27,1.06705,1.02601,15.1262,14.1434,16.1094,1.00861
1.28,1.07045,1.0261,15.1155,14.1328,16.0987,1.00864
1.29,1.07363,1.02624,15.1048,14.1221,16.0879,1.00869
1.3,1.07678,1.02641,15.0941,14.1115,16.0771,1.00875
1.31,1.07994,1.02652,15.0833,14.1008,16.0662,1.00878
1.32,1.08303,1.02665,15.0725,14.0901,16.0553,1.00881
1.33,1.08611,1.02679,15.0616,14.0793,16.0444,1.00887
1.34,1.08915,1.02689,15.0508,14.0685,16.0335,1.0089
1.35,1.0922,1.027,15.0398,14.0577,16.0225,1.00892
1.36,1.09513,1.02715,15.0289,14.0468,16.0115,1.00898
1.37,1.09811,1.02726,15.0179,14.0359,16.0004,1.00902
1.38,1.10124,1.02738,15.0069,14.025,15.9893,1.00904
1.39,1.10403,1.0275,14.9959,14.0141,15.9783,1.0091
1.4,1.10685,1.02763,14.9849,14.0031,15.9671,1.00915
1.41,1.10965,1.02776,14.9738,13.9921,15.956,1.00918
1.42,1.11239,1.02789,14.9627,13.9811,15.9448,1.00921
1.43,1.1151,1.02803,14.9515,13.97,15.9335,1.00927
1.44,1.1178,1.02816,14.9404,13.959,15.9223,1.00931
1.45,1.12049,1.02824,14.9292,13.9479,15.9111,1.00933
1.46,1.12312,1.02838,14.918,13.9367,15.8998,1.00939
1.47,1.1258,1.02851,14.9067,13.9255,15.8884,1.00944
1.48,1.1283,1.02862,14.8954,13.9143,15.8771,1.00946
1.49,1.13098,1.02874,14.8842,13.9031,15.8657,1.00949
1.5,1.13353,1.02886,14.8728,13.8919,15.8544,1.00956
1.51,1.13605,1.02898,14.8615,13.8806,15.843,1.0096
1.52,1.1385,1.0291,14.8501,13.8693,15.8315,1.00963
1.53,1.14094,1.02925,14.8387,13.858,15.82,1.00967
1.54,1.14328,1.02938,14.8273,13.8467,15.8085,1.00972
1.55,1.14576,1.0295,14.8158,13.8353,15.797,1.00976
1.56,1.14813,1.0296,14.8044,13.824,15.7855,1.00978
1.57,1.15058,1.02973,14.7929,13.8125,15.7739,1.00984
1.58,1.15293,1.02985,14.7814,13.8011,15.7623,1.00988
1.59,1.15523,1.02995,14.7698,13.7896,15.7507,1.00991
1.6,1.1576,1.03006,14.7583,13.7781,15.739,1.00992
1.61,1.15985,1.03017,14.7467,13.7666,15.7274,1.00999
1.62,1.16207,1.03028,14.7351,13.7551,15.7158,1.01003
1.63,1.16413,1.0304,14.7234,13.7435,15.704,1.01006
1.64,1.16626,1.03052,14.7118,13.7319,15.6923,1.01008
1.65,1.16852,1.03066,14.7001,13.7203,15.6805,1.01014
1.66,1.17081,1.03076,14.6884,13.7087,15.6688,1.01018
1.67,1.17286,1.03086,14.6767,13.6971,15.657,1.01021
1.68,1.17498,1.03096,14.665,13.6854,15.6452,1.01023
1.69,1.17705,1.03108,14.6532,13.6737,15.6334,1.01028
1.7,1.17908,1.03118,14.6414,13.662,15.6215,1.01032
1.71,1.18111,1.03127,14.6296,13.6503,15.6097,1.01035
1.72,1.18311,1.03135,14.6178,13.6385,15.5978,1.01036
1.73,1.18507,1.03147,14.606,13.6267,15.5859,1.01042
1.74,1.18703,1.03159,14.5941,13.615,15.574,1.01046
1.75,1.18914,1.03169,14.5822,13.6032,15.5621,1.01049
1.76,1.19104,1.03178,14.5703,13.5913,15.5501,1.0105
1.77,1.19303,1.03186,14.5584,13.5795,15.5381,1.01055
1.78,1.195,1.03195,14.5465,13.5676,15.5262,1.01059
1.79,1.19697,1.03202,14.5345,13.5556,15.5141,1.01062
1.8,1.1989,1.03209,14.5225,13.5437,15.5021,1.01063
1.81,1.20091,1.03218,14.5105,13.5317,15.49,1.01066
1.82,1.2028,1.03224,14.4985,13.5197,15.478,1.01071
1.83,1.20471,1.03231,14.4865,13.5077,15.4659,1.01074
1.84,1.20636,1.03239,14.4744,13.4957,15.4538,1.01075
1.85,1.20812,1.03249,14.4623,13.4837,15.4416,1.01077
1.86,1.20988,1.03261,14.4502,13.4717,15.4295,1.01081
1.87,1.2116,1.03269,14.4381,13.4597,15.4174,1.01085
1.88,1.21319,1.03277,14.426,13.4476,15.4052,1.01086
1.89,1.21484,1.03285,14.4139,13.4355,15.393,1.01087
1.9,1.21653,1.03295,14.4017,13.4235,15.3808,1.01091
1.91,1.21812,1.03304,14.3895,13.4113,15.3686,1.01094
1.92,1.21975,1.0331,14.3774,13.3992,15.3564,1.01097
1.93,1.22126,1.03318,14.3651,13.3871,15.3441,1.01098
1.94,1.22281,1.03326,14.3529,13.3749,15.3318,1.011
1.95,1.22433,1.03338,14.3407,13.3628,15.3196,1.01105
1.96,1.22591,1.03347,14.3284,13.3506,15.3073,1.01108
1.97,1.22751,1.03356,14.3162,13.3384,15.295,1.01111
1.98,1.22901,1.03363,14.3039,13.3262,15.2826,1.01112
1.99,1.23055,1.03371,14.2916,13.3139,15.2703,1.01116
2,1.23207,1.0338,14.2793,13.3017,15.2579,1.0112
2.01,1.2336,1.03387,14.267,13.2894,15.2456,1.01123
2.02,1.23509,1.03395,14.2546,13.2771,15.2332,1.01125
2.03,1.23662,1.034,14.2423,13.2648,15.2208,1.01126
2.04,1.238,1.0341,14.2299,13.2525,15.2084,1.0113
2.05,1.23938,1.03419,14.2175,13.2401,15.1959,1.01134
2.06,1.2408,1.03428,14.2051,13.2278,15.1835,1.01136
2.07,1.2422,1.03437,14.1927,13.2154,15.171,1.01138
2.08,1.24358,1.03443,14.1803,13.2031,15.1585,1.01138
2.09,1.24512,1.03452,14.1678,13.1906,15.146,1.01143
2.1,1.24655,1.0346,14.1553,13.1782,15.1335,1.01146
2.11,1.24784,1.03467,14.1429,13.1658,15.121,1.01148
2.12,1.24919,1.03474,14.1304,13.1534,15.1084,1.01149
2.13,1.25052,1.03477,14.1179,13.1409,15.0959,1.01149
2.14,1.25178,1.03486,14.1054,13.1285,15.0834,1.01154
2.15,1.25304,1.03494,14.0929,13.116,15.0708,1.01157
2.16,1.25438,1.03501,14.0803,13.1035,15.0582,1.01159
2.17,1.25576,1.03507,14.0678,13.091,15.0456,1.01161
2.18,1.25704,1.0351,14.0552,13.0784,15.0331,1.01161
2.19,1.25835,1.03515,14.0426,13.0659,15.0205,1.01165
2.2,1.25951,1.0352,14.03,13.0533,15.0078,1.01168
2.21,1.26104,1.03524,14.0174,13.0407,14.9952,1.0117
2.22,1.26245,1.03527,14.0048,13.0281,14.9826,1.01171
2.23,1.26363,1.03529,13.9922,13.0155,14.9699,1.01171
2.24,1.26477,1.03534,13.9795,13.0028,14.9572,1.01174
2.25,1.26601,1.03541,13.9669,12.9902,14.9446,1.01177
2.26,1.26714,1.03548,13.9542,12.9776,14.9319,1.01178
2.27,1.26834,1.03554,13.9416,12.965,14.9191,1.01179
2.28,1.26939,1.03559,13.9289,12.9524,14.9064,1.01179
2.29,1.27048,1.03565,13.9162,12.9397,14.8937,1.01181
2.3,1.27153,1.03571,13.9035,12.9271,14.881,1.01184
2.31,1.27254,1.03578,13.8907,12.9144,14.8682,1.01185
2.32,1.27364,1.03582,13.878,12.9017,14.8555,1.01187
2.33,1.27474,1.03588,13.8653,12.8891,14.8427,1.01188
2.34,1.27578,1.03592,13.8525,12.8763,14.8299,1.01188
2.35,1.27674,1.03602,13.8397,12.8637,14.8171,1.01192
2.36,1.27777,1.0361,13.827,12.8509,14.8043,1.01195
2.37,1.27879,1.03615,13.8142,12.8382,14.7915,1.01198
2.38,1.27983,1.03622,13.8014,12.8255,14.7787,1.01199
2.39,1.28087,1.03627,13.7886,12.8127,14.7658,1.012
2.4,1.2819,1.03632,13.7758,12.7999,14.753,1.01202
2.41,1.28305,1.03639,13.763,12.7871,14.7401,1.01206
2.42,1.28405,1.03642,13.7501,12.7743,14.7273,1.01208
2.43,1.28495,1.03649,13.7373,12.7615,14.7144,1.0121
2.44,1.28591,1.03654,13.7244,12.7486,14.7015,1.01211
2.45,1.2868,1.0366,13.7116,12.7358,14.6886,1.01211
2.46,1.28772,1.03669,13.6987,12.723,14.6757,1.01215
2.47,1.28867,1.03674,13.6858,12.7102,14.6628,1.01218
2.48,1.28958,1.03681,13.6729,12.6973,14.6498,1.0122
2.49,1.29056,1.03687,13.66,12.6844,14.6369,1.01221
2.5,1.2914,1.03692,13.6471,12.6716,14.6239,1.01221
2.51,1.29235,1.03696,13.6342,12.6587,14.6109,1.01221
2.52,1.29329,1.03699,13.6213,12.6458,14.598,1.01224
2.53,1.29416,1.03705,13.6083,12.6329,14.5851,1.01227
2.54,1.29505,1.0371,13.5954,12.6199,14.5721,1.01229
2.55,1.29594,1.03716,13.5824,12.607,14.5591,1.0123
2.56,1.29697,1.03719,13.5695,12.5941,14.5461,1.0123
2.57,1.29788,1.0372,13.5565,12.5811,14.5331,1.01231
2.58,1.29876,1.03724,13.5435,12.5681,14.5201,1.01234
2.59,1.29973,1.03726,13.5305,12.5551,14.5071,1.01236
2.6,1.30065,1.0373,13.5175,12.5421,14.4941,1.01238
2.61,1.3016,1.03731,13.5045,12.5291,14.4811,1.01238
2.62,1.30246,1.03731,13.4915,12.5161,14.4681,1.01238
2.63,1.3033,1.03733,13.4784,12.5031,14.455,1.01239
2.64,1.30409,1.03736,13.4654,12.4901,14.442,1.01241
2.65,1.30478,1.03742,13.4524,12.4771,14.4289,1.01243
2.66,1.30552,1.03745,13.4393,12.4641,14.4158,1.01244
2.67,1.30629,1.03749,13.4263,12.4511,14.4028,1.01244
2.68,1.30705,1.03752,13.4132,12.438,14.3897,1.01244
2.69,1.30769,1.03755,13.4001,12.425,14.3766,1.01244
2.7,1.30847,1.03761,13.387,12.4119,14.3635,1.01246
2.71,1.3092,1.03763,13.3739,12.3989,14.3504,1.01248
2.72,1.30994,1.03768,13.3609,12.3859,14.3373,1.01249
2.73,1.31062,1.03772,13.3477,12.3728,14.3242,1.0125
2.74,1.31127,1.03778,13.3346,12.3597,14.311,1.0125
2.75,1.31197,1.03782,13.3215,12.3467,14.2979,1.0125
2.76,1.31265,1.03786,13.3084,12.3336,14.2848,1.01253
2.77,1.31338,1.03792,13.2953,12.3205,14.2716,1.01256
2.78,1.31408,1.03796,13.2821,12.3073,14.2584,1.01258
2.79,1.31486,1.038,13.269,12.2942,14.2453,1.01259
2.8,1.31552,1.03803,13.2558,12.2811,14.2321,1.0126
2.81,1.31615,1.03804,13.2427,12.268,14.2189,1.0126
2.82,1.3169,1.0381,13.2295,12.2548,14.2057,1.01262
2.83,1.31748,1.03815,13.2163,12.2417,14.1925,1.01265
2.84,1.31808,1.03822,13.2032,12.2285,14.1793,1.01267
2.85,1.3187,1.03826,13.19,12.2154,14.1661,1.01268
2.86,1.31946,1.03831,13.1768,12.2022,14.1529,1.01269
2.87,1.32005,1.03833,13.1636,12.189,14.1396,1.01268
2.88,1.32062,1.03837,13.1504,12.1758,14.1264,1.01269
2.89,1.32131,1.03843,13.1372,12.1627,14.1131,1.01272
2.9,1.32191,1.03844,13.124,12.1495,14.0999,1.01273
2.91,1.32257,1.03849,13.1107,12.1363,14.0867,1.01275
2.92,1.32317,1.03852,13.0975,12.123,14.0734,1.01276
2.93,1.32386,1.03856,13.0843,12.1099,14.0602,1.01276
2.94,1.32443,1.03857,13.071,12.0966,14.0469,1.01275
2.95,1.32503,1.03859,13.0578,12.0834,14.0337,1.01278
2.96,1.32576,1.03863,13.0445,12.0701,14.0204,1.0128
2.97,1.32635,1.03864,13.0313,12.0568,14.0071,1.01282
2.98,1.3271,1.03866,13.018,12.0436,13.9938,1.01283
2.99,1.32775,1.03864,13.0047,12.0303,13.9806,1.01283
3,1.32833,1.03864,12.9915,12.017,13.9673,1.01282
3.01,1.32882,1.03866,12.9782,12.0037,13.954,1.01282
3.02,1.32932,1.0387,12.9649,11.9905,13.9407,1.01284
3.03,1.32984,1.03876,12.9516,11.9773,13.9274,1.01286
3.04,1.3304,1.03879,12.9383,11.964,13.9141,1.01287
3.05,1.33087,1.03884,12.925,11.9507,13.9008,1.01287
3.06,1.33133,1.03886,12.9117,11.9375,13.8874,1.01287
3.07,1.33176,1.03888,12.8983,11.9242,13.8741,1.01286
3.08,1.33226,1.03891,12.885,11.9109,13.8607,1.01287
3.09,1.33281,1.03892,12.8717,11.8976,13.8475,1.01289
3.1,1.33328,1.03897,12.8584,11.8843,13.8341,1.01291
3.11,1.33374,1.03901,12.845,11.871,13.8208,1.01292
3.12,1.33413,1.03906,12.8317,11.8577,13.8074,1.01293
3.13,1.3346,1.03909,12.8184,11.8444,13.794,1.01294
3.14,1.33507,1.0391,12.805,11.831,13.7807,1.01293
3.15,1.33559,1.03914,12.7917,11.8177,13.7673,1.01295
3.16,1.3361,1.03917,12.7783,11.8043,13.7539,1.01297
3.17,1.3367,1.03922,12.7649,11.791,13.7405,1.01299
3.18,1.33717,1.03922,12.7516,11.7776,13.7272,1.013
3.19,1.33764,1.03925,12.7382,11.7643,13.7138,1.01301
3.2,1.33813,1.03926,12.7248,11.7509,13.7004,1.01301
3.21,1.33852,1.03928,12.7114,11.7375,13.687,1.013
3.22,1.33895,1.03933,12.698,11.7242,13.6735,1.01301
3.23,1.33939,1.03935,12.6846,11.7108,13.6601,1.01303
3.24,1.3399,1.0394,12.6713,11.6974,13.6467,1.01305
3.25,1.34036,1.03942,12.6578,11.684,13.6333,1.01305
3.26,1.34077,1.03944,12.6444,11.6706,13.6198,1.01305
3.27,1.34129,1.03944,12.631,11.6572,13.6064,1.01305
3.28,1.34176,1.03943,12.6176,11.6438,13.593,1.01304
3.29,1.34226,1.03946,12.6042,11.6304,13.5796,1.01305
3.3,1.34262,1.03948,12.5908,11.617,13.5662,1.01307
3.31,1.34314,1.03951,12.5773,11.6036,13.5527,1.01309
3.32,1.34371,1.03951,12.5639,11.5901,13.5393,1.01309
3.33,1.34431,1.03951,12.5505,11.5767,13.5259,1.0131
3.34,1.34468,1.03949,12.537,11.5632,13.5124,1.01309
3.35,1.34535,1.03947,12.5236,11.5497,13.499,1.01308
3.36,1.3458,1.03946,12.5101,11.5362,13.4855,1.01309
3.37,1.3463,1.03944,12.4967,11.5227,13.4721,1.0131
3.38,1.34667,1.03946,12.4832,11.5093,13.4586,1.01312
3.39,1.34706,1.03946,12.4697,11.4958,13.4451,1.01312
3.4,1.3474,1.0395,12.4563,11.4824,13.4316,1.01312
3.41,1.34782,1.03952,12.4428,11.469,13.4182,1.01312
3.42,1.3481,1.03953,12.4293,11.4555,13.4047,1.01311
3.43,1.34847,1.03955,12.4158,11.4421,13.3912,1.0131
3.44,1.34879,1.03958,12.4023,11.4286,13.3777,1.01312
3.45,1.34916,1.03963,12.3888,11.4151,13.3642,1.01313
3.46,1.34954,1.03964,12.3753,11.4017,13.3507,1.01314
3.47,1.34991,1.03968,12.3619,11.3882,13.3372,1.01314
3.48,1.35025,1.0397,12.3483,11.3748,13.3237,1.01314
3.49,1.35049,1.03974,12.3348,11.3613,13.3102,1.01314
3.5,1.3508,1.03976,12.3213,11.3478,13.2966,1.01314
3.51,1.35118,1.0398,12.3078,11.3343,13.2831,1.01317
3.52,1.35159,1.03985,12.2943,11.3208,13.2696,1.01319
3.53,1.35189,1.03987,12.2808,11.3073,13.256,1.01321
3.54,1.35234,1.03991,12.2673,11.2938,13.2425,1.01323
3.55,1.35284,1.0399,12.2538,11.2803,13.229,1.01323
3.56,1.35317,1.03991,12.2402,11.2667,13.2154,1.01323
3.57,1.35353,1.03991,12.2267,11.2532,13.2019,1.01323
3.58,1.35388,1.03993,12.2132,11.2396,13.1883,1.01324
3.59,1.35421,1.03998,12.1996,11.2261,13.1747,1.01326
3.6,1.3545,1.04001,12.1861,11.2126,13.1612,1.01327
3.61,1.3548,1.04006,12.1725,11.1991,13.1476,1.01328
3.62,1.35512,1.04008,12.159,11.1855,13.134,1.01329
3.63,1.35541,1.0401,12.1454,11.172,13.1204,1.01328
3.64,1.35577,1.04011,12.1319,11.1585,13.1069,1.01328
3.65,1.35614,1.0401,12.1183,11.1449,13.0933,1.01326
3.66,1.35639,1.04014,12.1047,11.1314,13.0798,1.01328
3.67,1.35662,1.04016,12.0912,11.1178,13.0662,1.0133
3.68,1.35692,1.0402,12.0776,11.1043,13.0526,1.01331
3.69,1.35747,1.0402,12.064,11.0907,13.039,1.01332
3.7,1.35792,1.0402,12.0505,11.0771,13.0255,1.01332
3.71,1.35814,1.04019,12.0369,11.0635,13.0119,1.01332
3.72,1.35855,1.04017,12.0233,11.0499,12.9983,1.01331
3.73,1.35895,1.04017,12.0097,11.0363,12.9847,1.01331
3.74,1.35932,1.04015,11.9961,11.0227,12.9712,1.01333
3.75,1.35957,1.04018,11.9825,11.0092,12.9576,1.01334
3.76,1.3597,1.0402,11.9689,10.9956,12.944,1.01335
3.77,1.36004,1.04024,11.9553,10.982,12.9303,1.01336
3.78,1.36028,1.04025,11.9417,10.9685,12.9168,1.01335
3.79,1.36048,1.04027,11.9281,10.9549,12.9031,1.01335
3.8,1.36072,1.04029,11.9145,10.9413,12.8895,1.01334
