time,velocity,ratio,centerX,Xmax,Xmin,Ymax
0,0,1,8.5,7.5,9.5,1
0.01,0.0196608,1,8.49991,7.4999,9.4999,1
0.02,0.038923,1.00001,8.49962,7.49962,9.49961,1
0.03,0.0577779,1.00001,8.49914,7.49914,9.49912,1
0.04,0.0762568,1.00002,8.49847,7.49847,9.49844,1
0.05,0.0943865,1.00002,8.49762,7.49763,9.49758,1
0.06,0.112198,1.00003,8.4966,7.49661,9.49654,0.999998
0.07,0.129605,1.00004,8.49539,7.49542,9.49533,0.999997
0.08,0.146674,1.00005,8.49402,7.49406,9.49395,0.999995
0.09,0.163433,1.00006,8.49247,7.49253,9.4924,0.999992
0.1,0.179865,1.00009,8.49076,7.49085,9.49068,1.00001
0.11,0.196067,1.00014,8.48889,7.489,9.4888,1.00004
0.12,0.211971,1.00018,8.48685,7.487,9.48677,1.00006
0.13,0.227595,1.00023,8.48466,7.48486,9.48457,1.00009
0.14,0.242905,1.00028,8.48231,7.48257,9.48221,1.0001
0.15,0.25795,1.00035,8.47981,7.48013,9.47967,1.00012
0.16,0.27275,1.00044,8.47716,7.47755,9.47695,1.00014
0.17,0.287267,1.00057,8.47437,7.47483,9.47406,1.00018
0.18,0.301553,1.00072,8.47142,7.47199,9.47102,1.00024
0.19,0.31562,1.00088,8.46834,7.46901,9.46783,1.00029
0.2,0.329433,1.00107,8.46512,7.46591,9.46447,1.00034
0.21,0.342978,1.00126,8.46176,7.46268,9.46094,1.00039
0.22,0.356289,1.0015,8.45827,7.45933,9.45726,1.00047
0.23,0.369405,1.00177,8.45465,7.45586,9.45345,1.00056
0.24,0.382097,1.00205,8.45089,7.45229,9.44949,1.00065
0.25,0.394727,1.00235,8.44701,7.44859,9.44536,1.00073
0.26,0.407153,1.00268,8.443,7.44478,9.4411,1.00084
0.27,0.419344,1.00304,8.43888,7.44085,9.43672,1.00097
0.28,0.431371,1.00344,8.43463,7.43683,9.43214,1.00109
0.29,0.443177,1.00386,8.43026,7.43271,9.42743,1.00121
0.3,0.454717,1.00431,8.42577,7.4285,9.42264,1.00137
0.31,0.466033,1.00477,8.42117,7.42418,9.41774,1.00153
0.32,0.477181,1.00527,8.41646,7.41977,9.41264,1.00169
0.33,0.488132,1.00581,8.41163,7.41526,9.4074,1.00186
0.34,0.498895,1.0064,8.4067,7.41066,9.40205,1.00207
0.35,0.509446,1.00702,8.40166,7.40598,9.39653,1.00226
0.36,0.519802,1.00765,8.39652,7.40121,9.39089,1.00245
0.37,0.529994,1.00835,8.39127,7.39636,9.38515,1.00269
0.38,0.539958,1.00907,8.38592,7.39144,9.37924,1.00292
0.39,0.549685,1.00979,8.38048,7.38644,9.37328,1.00315
0.4,0.559356,1.01061,8.37494,7.38133,9.36711,1.00342
0.41,0.568755,1.01139,8.3693,7.37614,9.36086,1.00367
0.42,0.57798,1.01216,8.36357,7.37089,9.35464,1.00393
0.43,0.587182,1.01302,8.35774,7.36557,9.34821,1.00423
0.44,0.596036,1.01389,8.35183,7.36018,9.34166,1.0045
0.45,0.604747,1.01483,8.34583,7.3547,9.33496,1.00481
0.46,0.613265,1.0158,8.33974,7.34915,9.32812,1.00512
0.47,0.62164,1.01674,8.33357,7.34353,9.32123,1.00541
0.48,0.629902,1.01779,8.32731,7.33783,9.31418,1.00576
0.49,0.638001,1.01881,8.32098,7.33207,9.30709,1.00608
0.5,0.645933,1.0199,8.31456,7.32626,9.29982,1.00642
0.51,0.653744,1.02094,8.30806,7.32035,9.29261,1.00678
0.52,0.66122,1.02199,8.30149,7.31436,9.28524,1.00711
0.53,0.668702,1.02312,8.29484,7.30832,9.27778,1.0075
0.54,0.676046,1.02427,8.28812,7.30222,9.27017,1.00785
0.55,0.683273,1.02544,8.28133,7.29606,9.26252,1.00824
0.56,0.690355,1.02663,8.27446,7.28984,9.25475,1.00862
0.57,0.697332,1.02781,8.26752,7.28355,9.24695,1.009
0.58,0.704116,1.02908,8.26052,7.27721,9.23896,1.0094
0.59,0.710755,1.03024,8.25344,7.27082,9.23107,1.00976
0.6,0.7173,1.03147,8.24631,7.26439,9.22313,1.01019
0.61,0.723717,1.03269,8.2391,7.25789,9.21506,1.01058
0.62,0.730137,1.03398,8.23184,7.25129,9.20685,1.011
0.63,0.736188,1.03524,8.22451,7.24466,9.1986,1.0114
0.64,0.742286,1.03658,8.21711,7.23801,9.19023,1.01182
0.65,0.74824,1.03787,8.20966,7.23129,9.18188,1.01223
0.66,0.754095,1.03922,8.20215,7.22451,9.17336,1.01264
0.67,0.759836,1.04047,8.19459,7.21767,9.16499,1.01306
0.68,0.765568,1.04177,8.18696,7.21077,9.15645,1.01348
0.69,0.771052,1.04307,8.17928,7.20383,9.14791,1.0139
0.7,0.776522,1.04439,8.17154,7.19682,9.13922,1.01431
0.71,0.78191,1.04569,8.16375,7.18973,9.13055,1.01474
0.72,0.787113,1.04697,8.15591,7.1826,9.1218,1.01515
0.73,0.792286,1.04832,8.14801,7.17542,9.11296,1.01558
0.74,0.79745,1.04954,8.14006,7.16819,9.10423,1.01598
0.75,0.802495,1.0508,8.13207,7.16091,9.09544,1.01641
0.76,0.807468,1.05203,8.12402,7.15358,9.0866,1.01681
0.77,0.81234,1.05335,8.11592,7.1462,9.07761,1.01723
0.78,0.817131,1.05461,8.10777,7.1388,9.06866,1.01763
0.79,0.821838,1.0559,8.09958,7.13133,9.05963,1.01804
0.8,0.826407,1.05715,8.09134,7.12377,9.05053,1.01844
0.81,0.830997,1.05837,8.08305,7.11621,9.04152,1.01884
0.82,0.835527,1.0596,8.07472,7.10861,9.03245,1.01924
0.83,0.840034,1.06077,8.06635,7.10094,9.02336,1.01962
0.84,0.84438,1.06201,8.05792,7.09322,9.01415,1.02002
0.85,0.848729,1.06316,8.04946,7.08544,9.00497,1.02038
0.86,0.853122,1.06437,8.04095,7.07764,8.99574,1.02079
0.87,0.85728,1.06554,8.0324,7.06976,8.9864,1.02113
0.88,0.861437,1.06664,8.02381,7.06181,8.97724,1.02153
0.89,0.865553,1.0677,8.01518,7.05383,8.96798,1.02187
0.9,0.869617,1.0688,8.0065,7.04581,8.9587,1.02225
0.91,0.873549,1.06988,7.99779,7.03773,8.94932,1.02259
0.92,0.87753,1.07097,7.98903,7.02961,8.93992,1.02294
0.93,0.881537,1.07202,7.98024,7.02145,8.93055,1.02329
0.94,0.885377,1.07309,7.9714,7.01328,8.92106,1.02361
0.95,0.889088,1.07407,7.96253,7.00502,8.91172,1.02396
0.96,0.892819,1.07501,7.95362,6.9967,8.90228,1.02426
0.97,0.896473,1.07603,7.94468,6.98837,8.89278,1.02461
0.98,0.900172,1.07699,7.9357,6.98001,8.88329,1.02491
0.99,0.90376,1.07797,7.92668,6.9716,8.87372,1.02522
1,0.907365,1.07892,7.91762,6.96313,8.86416,1.02553
1.01,0.910911,1.0798,7.90853,6.95464,8.85461,1.0258
1.02,0.914381,1.08068,7.89941,6.94609,8.8451,1.02611
1.03,0.917844,1.08148,7.89025,6.93746,8.83555,1.02638
1.04,0.92129,1.08238,7.88105,6.9288,8.82586,1.02666
1.05,0.924733,1.08322,7.87182,6.92012,8.8162,1.02694
1.06,0.928023,1.08401,7.86256,6.91137,8.80651,1.02718
1.07,0.931372,1.08488,7.85327,6.90259,8.79673,1.02746
1.08,0.934621,1.08559,7.84394,6.89377,8.78711,1.02769
1.09,0.93786,1.08638,7.83457,6.88494,8.77737,1.02796
1.1,0.941144,1.08713,7.82518,6.87601,8.7676,1.0282
1.11,0.944295,1.08783,7.81575,6.86706,8.75782,1.02841
1.12,0.94755,1.08862,7.8063,6.85811,8.74796,1.02867
1.13,0.95067,1.08933,7.79681,6.84908,8.73809,1.02888
1.14,0.953906,1.09,7.78728,6.84002,8.72828,1.0291
1.15,0.956984,1.09065,7.77773,6.83091,8.71846,1.02932
1.16,0.960026,1.09125,7.76815,6.82178,8.70861,1.0295
1.17,0.963298,1.09192,7.75853,6.81255,8.69865,1.02973
1.18,0.966309,1.09254,7.74888,6.80329,8.68866,1.02992
1.19,0.96934,1.09314,7.73921,6.79402,8.67869,1.03011
1.2,0.972304,1.09377,7.7295,6.78468,8.66865,1.03031
1.21,0.975146,1.09427,7.71976,6.77531,8.65871,1.03047
1.22,0.978113,1.09484,7.71,6.76593,8.6487,1.03066
1.23,0.980948,1.09543,7.7002,6.75651,8.63859,1.03084
1.24,0.983741,1.09591,7.69038,6.747,8.62851,1.03098
1.25,0.986567,1.09647,7.68053,6.7375,8.6184,1.03118
1.26,0.989368,1.09705,7.67065,6.72799,8.6082,1.03134
1.27,0.992128,1.09745,7.66074,6.71843,8.59818,1.03147
1.28,0.994894,1.09795,7.65081,6.70882,8.58805,1.03165
1.29,0.997664,1.09845,7.64085,6.6992,8.57782,1.03178
1.3,1.0004,1.09888,7.63086,6.68949,8.56763,1.03192
1.31,1.00309,1.09936,7.62084,6.67975,8.55736,1.03209
1.32,1.00576,1.09983,7.6108,6.67,8.54703,1.03221
1.33,1.00834,1.1002,7.60073,6.66019,8.53684,1.03235
1.34,1.01104,1.10063,7.59063,6.65036,8.52655,1.03249
1.35,1.0137,1.10104,7.58051,6.64052,8.51621,1.0326
1.36,1.01629,1.10145,7.57036,6.63064,8.50588,1.03274
1.37,1.01893,1.10187,7.56018,6.62069,8.49546,1.03288
1.38,1.02144,1.1023,7.54998,6.61076,8.48499,1.03298
1.39,1.02392,1.10264,7.53976,6.60079,8.47468,1.03312
1.4,1.02641,1.10301,7.52951,6.59079,8.46427,1.03324
1.41,1.02887,1.10336,7.51923,6.58074,8.4538,1.03333
1.42,1.03139,1.10375,7.50893,6.57068,8.44333,1.03347
1.43,1.03376,1.10412,7.49861,6.56053,8.43277,1.03359
1.44,1.03613,1.10448,7.48826,6.55038,8.42218,1.03368
1.45,1.03847,1.10479,7.47788,6.54021,8.41171,1.03381
1.46,1.04082,1.10512,7.46749,6.53,8.40114,1.03392
1.47,1.04314,1.10544,7.45707,6.51977,8.39052,1.034
1.48,1.04538,1.10581,7.44663,6.50955,8.37992,1.03413
1.49,1.04758,1.10614,7.43616,6.49923,8.36924,1.03424
1.5,1.04975,1.10648,7.42568,6.48893,8.35851,1.03432
1.51,1.0519,1.10677,7.41517,6.47864,8.34795,1.03444
1.52,1.0539,1.10709,7.40464,6.46832,8.33729,1.03455
1.53,1.05601,1.10741,7.39409,6.45798,8.32654,1.03463
1.54,1.0581,1.10776,7.38352,6.44763,8.3158,1.03475
1.55,1.06021,1.10809,7.37293,6.43721,8.30503,1.03486
1.56,1.06234,1.10844,7.36232,6.42678,8.29418,1.03494
1.57,1.06438,1.10872,7.35169,6.41635,8.28345,1.03505
1.58,1.06651,1.10904,7.34103,6.40588,8.27265,1.03516
1.59,1.06849,1.10937,7.33036,6.3954,8.26177,1.03525
1.6,1.07046,1.10971,7.31967,6.38493,8.25089,1.03534
1.61,1.07259,1.11004,7.30895,6.37438,8.24001,1.03546
1.62,1.07452,1.11038,7.29822,6.36384,8.22906,1.03555
1.63,1.07645,1.11066,7.28746,6.35331,8.2182,1.03563
1.64,1.07838,1.11099,7.27669,6.34274,8.2073,1.03575
1.65,1.08021,1.11133,7.2659,6.33214,8.1963,1.03584
1.66,1.08205,1.11166,7.25509,6.32155,8.18526,1.03591
1.67,1.08386,1.11202,7.24426,6.31087,8.17423,1.03604
1.68,1.0857,1.11233,7.23341,6.3002,8.16323,1.03615
1.69,1.08747,1.11262,7.22254,6.28952,8.15221,1.03623
1.7,1.08925,1.11296,7.21166,6.27883,8.14114,1.03634
1.71,1.09094,1.1133,7.20076,6.26811,8.13006,1.03645
1.72,1.09262,1.11365,7.18984,6.2574,8.11892,1.03654
1.73,1.09424,1.11399,7.17891,6.24662,8.10774,1.03664
1.74,1.09592,1.11429,7.16796,6.23588,8.09672,1.03676
1.75,1.09752,1.11461,7.15699,6.22513,8.08562,1.03686
1.76,1.09915,1.11495,7.14601,6.21436,8.07442,1.03694
1.77,1.10078,1.11534,7.13501,6.20358,8.06322,1.03707
1.78,1.10232,1.1157,7.124,6.19276,8.05201,1.03718
1.79,1.10403,1.11603,7.11297,6.1819,8.04076,1.03727
1.8,1.10555,1.11636,7.10192,6.17105,8.02957,1.03739
1.81,1.10711,1.11669,7.09085,6.16017,8.01835,1.0375
1.82,1.10861,1.11703,7.07978,6.14928,8.00708,1.0376
1.83,1.11023,1.11739,7.06868,6.13841,7.99575,1.03769
1.84,1.11167,1.1178,7.05757,6.12748,7.98439,1.03782
1.85,1.11309,1.11809,7.04645,6.11654,7.97317,1.03793
1.86,1.11451,1.1184,7.03531,6.10563,7.96188,1.03801
1.87,1.11583,1.11878,7.02416,6.09468,7.95052,1.03814
1.88,1.11722,1.11915,7.013,6.08372,7.93916,1.03825
1.89,1.1186,1.11951,7.00182,6.07276,7.92777,1.03835
1.9,1.11991,1.11985,6.99063,6.06173,7.91635,1.03845
1.91,1.12126,1.12019,6.97942,6.0507,7.90499,1.03858
1.92,1.12254,1.12051,6.9682,6.03967,7.89362,1.03868
1.93,1.12382,1.12084,6.95697,6.02863,7.88218,1.03877
1.94,1.1251,1.12123,6.94573,6.01758,7.87071,1.03889
1.95,1.12629,1.12163,6.93447,6.00653,7.85921,1.03901
1.96,1.12755,1.12189,6.9232,5.99542,7.84785,1.03911
1.97,1.12879,1.1222,6.91192,5.98435,7.83642,1.03919
1.98,1.12996,1.12259,6.90063,5.97327,7.82492,1.03932
1.99,1.13122,1.12296,6.88932,5.96218,7.81343,1.03943
2,1.13246,1.1233,6.878,5.95109,7.80192,1.03952
2.01,1.13361,1.12365,6.86668,5.93994,7.79038,1.03963
2.02,1.13479,1.12398,6.85533,5.92877,7.77889,1.03975
2.03,1.136,1.1243,6.84398,5.91761,7.76739,1.03985
2.04,1.13726,1.12459,6.83261,5.90642,7.75584,1.03993
2.05,1.13844,1.12496,6.82124,5.89522,7.74425,1.04005
2.06,1.13962,1.12535,6.80985,5.88404,7.73263,1.04016
2.07,1.14072,1.12558,6.79844,5.87278,7.72116,1.04025
2.08,1.14184,1.12586,6.78703,5.86156,7.70962,1.04033
2.09,1.14299,1.12623,6.77561,5.85034,7.698,1.04045
2.1,1.1441,1.12657,6.76417,5.8391,7.68638,1.04055
2.11,1.14505,1.12688,6.75273,5.82784,7.67476,1.04063
2.12,1.14608,1.12718,6.74127,5.81656,7.66315,1.04072
2.13,1.14713,1.12748,6.72981,5.80524,7.65154,1.04084
2.14,1.14817,1.12778,6.71833,5.79394,7.63991,1.04093
2.15,1.14921,1.12804,6.70685,5.7826,7.62828,1.041
2.16,1.15029,1.12836,6.69535,5.77127,7.61661,1.0411
2.17,1.15123,1.12871,6.68384,5.75997,7.60491,1.04121
2.18,1.15218,1.12892,6.67233,5.74858,7.59333,1.04129
2.19,1.1532,1.12916,6.6608,5.73722,7.5817,1.04136
2.2,1.15415,1.12948,6.64926,5.72587,7.57001,1.04146
2.21,1.15517,1.12981,6.63772,5.71452,7.5583,1.04156
2.22,1.1561,1.13012,6.62616,5.70315,7.54656,1.04164
2.23,1.15701,1.13033,6.6146,5.69175,7.53492,1.0417
2.24,1.15792,1.13061,6.60302,5.68032,7.52323,1.04181
2.25,1.15882,1.1309,6.59144,5.6689,7.5115,1.0419
2.26,1.15977,1.13115,6.57985,5.65745,7.49977,1.04197
2.27,1.16084,1.13139,6.56824,5.646,7.48803,1.04203
2.28,1.16172,1.1317,6.55663,5.63458,7.4763,1.04214
2.29,1.16269,1.13191,6.54501,5.62307,7.46461,1.04222
2.3,1.16354,1.13214,6.53338,5.61161,7.45287,1.04229
2.31,1.16441,1.13238,6.52174,5.60014,7.44111,1.04234
2.32,1.16527,1.13268,6.51009,5.58866,7.42933,1.04244
2.33,1.16609,1.13296,6.49844,5.57716,7.41751,1.04252
2.34,1.16695,1.13315,6.48677,5.56563,7.40579,1.04258
2.35,1.16768,1.13333,6.4751,5.55408,7.39404,1.04264
2.36,1.16848,1.1336,6.46342,5.54254,7.38223,1.04273
2.37,1.16932,1.13383,6.45173,5.53097,7.37041,1.04281
2.38,1.17011,1.13406,6.44003,5.5194,7.35857,1.04286
2.39,1.17087,1.13422,6.42833,5.50785,7.34685,1.04291
2.4,1.17168,1.13441,6.41662,5.49623,7.33508,1.043
2.41,1.1725,1.13465,6.4049,5.48465,7.32324,1.04307
2.42,1.17331,1.13486,6.39317,5.47307,7.3114,1.04312
2.43,1.1741,1.13506,6.38143,5.46148,7.29956,1.04317
2.44,1.17489,1.13531,6.36969,5.44989,7.28773,1.04326
2.45,1.17565,1.13549,6.35793,5.43824,7.27591,1.04333
2.46,1.17656,1.13566,6.34617,5.42658,7.26406,1.04337
2.47,1.17736,1.13582,6.3344,5.41493,7.25221,1.04341
2.48,1.1782,1.13604,6.32263,5.40326,7.24033,1.04349
2.49,1.17899,1.13626,6.31084,5.39159,7.22842,1.04356
2.5,1.17977,1.1364,6.29905,5.37992,7.21661,1.0436
2.51,1.18047,1.13651,6.28725,5.36821,7.20475,1.04363
2.52,1.1812,1.13674,6.27544,5.35654,7.19286,1.04371
2.53,1.182,1.13694,6.26362,5.34484,7.18093,1.04377
2.54,1.18265,1.13714,6.2518,5.33313,7.16898,1.04381
2.55,1.18336,1.13726,6.23997,5.32143,7.15713,1.04384
2.56,1.18407,1.13742,6.22813,5.30966,7.14524,1.04391
2.57,1.1848,1.13761,6.21629,5.29791,7.1333,1.04397
2.58,1.18554,1.13777,6.20444,5.28615,7.12135,1.04402
2.59,1.18628,1.13792,6.19258,5.27438,7.10939,1.04404
2.6,1.18693,1.13807,6.18071,5.26264,7.09751,1.0441
2.61,1.18763,1.1382,6.16884,5.25084,7.0856,1.04416
2.62,1.18843,1.13834,6.15696,5.23903,7.07364,1.04421
2.63,1.18907,1.13849,6.14507,5.22725,7.06166,1.04423
2.64,1.18979,1.13866,6.13318,5.21547,7.04969,1.04428
2.65,1.19042,1.13884,6.12128,5.20367,7.03772,1.04435
2.66,1.19104,1.13897,6.10937,5.19186,7.02577,1.04439
2.67,1.19174,1.13909,6.09746,5.18001,7.01379,1.04442
2.68,1.19236,1.13922,6.08554,5.16818,7.00181,1.04445
2.69,1.19308,1.13939,6.07361,5.15632,6.98979,1.04452
2.7,1.19371,1.13955,6.06168,5.14447,6.97777,1.04457
2.71,1.19433,1.13965,6.04974,5.13264,6.96582,1.04459
2.72,1.19495,1.13973,6.03779,5.12075,6.95384,1.04461
2.73,1.19554,1.13991,6.02584,5.1089,6.94182,1.04468
2.74,1.19614,1.14008,6.01388,5.09704,6.92977,1.04473
2.75,1.1967,1.14024,6.00192,5.08517,6.9177,1.04476
2.76,1.19726,1.14034,5.98995,5.07331,6.90572,1.04478
2.77,1.19792,1.14045,5.97797,5.06138,6.8937,1.04484
2.78,1.19852,1.1406,5.96599,5.04946,6.88164,1.04489
2.79,1.19912,1.14074,5.95401,5.03754,6.86956,1.04493
2.8,1.19966,1.14086,5.94201,5.02561,6.85747,1.04495
2.81,1.20029,1.14095,5.93001,5.0137,6.84549,1.04499
2.82,1.20086,1.14106,5.91801,5.00175,6.83346,1.04505
2.83,1.2014,1.14119,5.906,4.98979,6.82137,1.04509
2.84,1.20199,1.14133,5.89398,4.97788,6.80927,1.04511
2.85,1.20256,1.14146,5.88196,4.96594,6.79716,1.04513
2.86,1.2031,1.1416,5.86993,4.954,6.78511,1.04519
2.87,1.20373,1.14172,5.8579,4.94204,6.77303,1.04524
2.88,1.20428,1.14183,5.84586,4.93005,6.76092,1.04527
2.89,1.20488,1.14193,5.83381,4.91808,6.7488,1.04528
2.9,1.20545,1.14207,5.82176,4.90608,6.73667,1.04533
2.91,1.20595,1.14219,5.8097,4.89409,6.72457,1.04538
2.92,1.20651,1.14229,5.79764,4.88211,6.7125,1.04541
2.93,1.20702,1.14236,5.78557,4.87008,6.70037,1.04543
2.94,1.2075,1.14249,5.7735,4.8581,6.68824,1.04546
2.95,1.20792,1.14264,5.76142,4.8461,6.6761,1.04551
2.96,1.20851,1.14278,5.74934,4.83409,6.66394,1.04555
2.97,1.20897,1.14288,5.73726,4.8221,6.65182,1.04558
2.98,1.20952,1.14295,5.72516,4.81004,6.63967,1.04559
2.99,1.21002,1.14308,5.71307,4.798,6.62752,1.04564
3,1.21053,1.14321,5.70096,4.78595,6.61534,1.04569
3.01,1.21102,1.14334,5.68886,4.77391,6.60315,1.04572
3.02,1.21149,1.14341,5.67674,4.76188,6.59104,1.04574
3.03,1.21193,1.14348,5.66463,4.7498,6.5789,1.04577
3.04,1.21233,1.14362,5.65251,4.73775,6.56672,1.04582
3.05,1.21277,1.14376,5.64038,4.72571,6.55451,1.04586
3.06,1.21323,1.14389,5.62825,4.71366,6.5423,1.04588
3.07,1.21364,1.14396,5.61612,4.70161,6.53015,1.04589
3.08,1.21408,1.14407,5.60398,4.68952,6.51799,1.04595
3.09,1.21452,1.14419,5.59184,4.67742,6.50578,1.04599
3.1,1.21509,1.1443,5.57969,4.66533,6.49355,1.04602
3.11,1.21552,1.14442,5.56754,4.65323,6.4813,1.04604
3.12,1.21593,1.14448,5.55538,4.64114,6.46916,1.04607
3.13,1.21637,1.14458,5.54322,4.62904,6.45699,1.04612
3.14,1.21675,1.14469,5.53106,4.61692,6.44476,1.04616
3.15,1.21715,1.14482,5.51889,4.60484,6.43251,1.04618
3.16,1.2175,1.14492,5.50671,4.59273,6.42025,1.04618
3.17,1.21786,1.14503,5.49454,4.58063,6.40807,1.04624
3.18,1.21832,1.14514,5.48236,4.56852,6.39586,1.04628
3.19,1.21875,1.14523,5.47017,4.55636,6.38361,1.04631
3.2,1.21912,1.14533,5.45798,4.54423,6.37135,1.04633
3.21,1.21952,1.14543,5.44579,4.53207,6.35907,1.04636
3.22,1.21996,1.14552,5.43359,4.51993,6.34689,1.04641
3.23,1.22035,1.14561,5.42139,4.5078,6.33467,1.04644
3.24,1.22069,1.14569,5.40919,4.49562,6.32241,1.04646
3.25,1.2211,1.14578,5.39698,4.48349,6.31013,1.04647
3.26,1.22146,1.14592,5.38477,4.47135,6.29786,1.04652
3.27,1.2218,1.14603,5.37255,4.4592,6.28562,1.04657
3.28,1.22226,1.14613,5.36033,4.44706,6.27337,1.04659
3.29,1.22262,1.14619,5.34811,4.43486,6.26109,1.04661
3.3,1.22306,1.14627,5.33588,4.42267,6.24881,1.04662
3.31,1.22339,1.1464,5.32365,4.41048,6.2365,1.04668
3.32,1.22377,1.14649,5.31141,4.39829,6.22424,1.04671
3.33,1.22414,1.14656,5.29917,4.38613,6.21199,1.04673
3.34,1.22445,1.1466,5.28693,4.3739,6.19971,1.04674
3.35,1.22479,1.14671,5.27468,4.36171,6.18741,1.04677
3.36,1.2251,1.14684,5.26243,4.34954,6.1751,1.04682
3.37,1.22542,1.14695,5.25018,4.33735,6.1628,1.04685
3.38,1.22572,1.14703,5.23793,4.32517,6.15052,1.04686
3.39,1.22608,1.1471,5.22567,4.31294,6.13821,1.04688
3.4,1.22643,1.1472,5.21341,4.30071,6.1259,1.04693
3.41,1.22675,1.14731,5.20114,4.28849,6.11357,1.04697
3.42,1.2271,1.14739,5.18887,4.27626,6.10125,1.047
3.43,1.22742,1.14743,5.1766,4.26404,6.08899,1.047
3.44,1.2279,1.14747,5.16432,4.2518,6.07669,1.047
3.45,1.2282,1.14756,5.15204,4.23955,6.06437,1.04705
3.46,1.22846,1.14769,5.13976,4.22735,6.05203,1.04708
3.47,1.22876,1.14779,5.12747,4.21512,6.03968,1.0471
3.48,1.22907,1.14785,5.11519,4.2029,6.02738,1.04712
3.49,1.22935,1.14792,5.10289,4.19065,6.01506,1.04714
3.5,1.22967,1.148,5.0906,4.17839,6.00273,1.04718
3.51,1.22999,1.1481,5.0783,4.16613,5.99036,1.0472
3.52,1.23028,1.14819,5.066,4.15387,5.978,1.04722
3.53,1.23054,1.1482,5.0537,4.14162,5.96572,1.04722
3.54,1.23082,1.14829,5.04139,4.12937,5.9534,1.04726
3.55,1.23108,1.14837,5.02908,4.11709,5.94105,1.0473
3.56,1.2313,1.14848,5.01677,4.10485,5.92869,1.04732
3.57,1.23153,1.14858,5.00446,4.0926,5.9163,1.04733
3.58,1.23174,1.14862,4.99214,4.08034,5.90398,1.04734
3.59,1.23201,1.14872,4.97982,4.06808,5.89165,1.04738
3.6,1.23227,1.14879,4.9675,4.05578,5.87929,1.04742
3.61,1.23254,1.14887,4.95518,4.04349,5.8669,1.04743
3.62,1.23285,1.14894,4.94285,4.03119,5.85451,1.04744
3.63,1.23316,1.14897,4.93052,4.0189,5.84221,1.04746
3.64,1.23339,1.14905,4.91819,4.00664,5.82988,1.0475
3.65,1.2337,1.14911,4.90585,3.99431,5.81751,1.04753
3.66,1.23393,1.14921,4.89352,3.98204,5.80511,1.04754
3.67,1.23418,1.14928,4.88117,3.96976,5.79271,1.04755
3.68,1.23443,1.14935,4.86883,3.95747,5.78038,1.04758
3.69,1.23476,1.14943,4.85649,3.94519,5.76803,1.04761
3.7,1.235,1.14949,4.84414,3.93285,5.75564,1.04764
3.71,1.23529,1.14956,4.83179,3.92054,5.74323,1.04764
3.72,1.23555,1.14961,4.81943,3.9082,5.7308,1.04764
3.73,1.23581,1.14966,4.80708,3.89588,5.71848,1.04768
3.74,1.23604,1.14973,4.79472,3.88359,5.70612,1.04771
3.75,1.23625,1.14977,4.78236,3.87123,5.69372,1.04773
3.76,1.2364,1.14985,4.76999,3.85892,5.6813,1.04773
3.77,1.23666,1.14992,4.75763,3.8466,5.66887,1.04773
3.78,1.23695,1.14999,4.74526,3.83429,5.65652,1.04777
3.79,1.23719,1.15007,4.73289,3.82198,5.64414,1.0478
3.8,1.23744,1.15011,4.72052,3.80961,5.63172,1.04781
