time,velocity,ratio,centerX,Xmax,Xmin,Ymax
0,0,1,7.25,6.25,8.25,1
0.01,0.0197117,1.00005,7.2499,6.24994,8.24986,1.00001
0.02,0.0393295,1.00012,7.24961,6.24969,8.24953,1.00004
0.03,0.0583737,1.00015,7.24912,6.24922,8.24902,1.00005
0.04,0.0764505,1.0001,7.24844,6.24851,8.24837,1.00004
0.05,0.093657,1.00005,7.2476,6.24762,8.24756,1.00002
0.06,0.110365,1.00003,7.24658,6.24659,8.24655,1.00001
0.07,0.126956,1.00006,7.24539,6.24544,8.24533,1.00001
0.08,0.143424,1.00009,7.24404,6.24412,8.24395,1.00001
0.09,0.159993,1.00006,7.24252,6.2426,8.24244,0.99998
0.1,0.178578,0.999969,7.24083,6.24085,8.24086,0.999975
0.11,0.198861,1,7.23895,6.23898,8.23897,1
0.12,0.21933,1.00015,7.23686,6.23697,8.23678,1.00005
0.13,0.239126,1.00024,7.23456,6.23474,8.23443,1.00009
0.14,0.256722,1.00019,7.23208,6.23224,8.23196,1.00006
0.15,0.272427,1.00001,7.22944,6.22943,8.22942,1.00001
0.16,0.287315,0.999903,7.22664,6.22664,8.22666,0.999914
0.17,0.305214,0.999897,7.22368,6.22362,8.22381,0.999991
0.18,0.325316,1.00022,7.22053,6.22071,8.22041,1.00007
0.19,0.342805,1.00039,7.21719,6.21745,8.21693,1.00013
0.2,0.35705,1.00026,7.21369,6.21388,8.21349,1.00006
0.21,0.370804,0.999926,7.21005,6.21004,8.21006,0.999935
0.22,0.389026,0.999743,7.20626,6.20611,8.20652,0.999951
0.23,0.406517,1.0001,7.20228,6.20238,8.2022,1.00001
0.24,0.420819,1.00035,7.19814,6.19836,8.19789,1.00012
0.25,0.43396,1.00039,7.19387,6.19417,8.19358,1.00009
0.26,0.452437,1.00006,7.18944,6.18947,8.18952,1.00008
0.27,0.468027,0.999993,7.18483,6.18488,8.18478,0.999946
0.28,0.480023,0.999929,7.18009,6.18003,8.18012,0.999973
0.29,0.495345,1.00013,7.17522,6.17535,8.17517,1.00004
0.3,0.511321,1.00032,7.17018,6.17042,8.17002,1.00012
0.31,0.522083,1.00033,7.16501,6.16524,8.16472,1.00007
0.32,0.536276,1.00004,7.15973,6.15973,8.15975,1.00006
0.33,0.55196,1,7.15428,6.15434,8.15437,1.00002
0.34,0.562948,1.00004,7.14871,6.14876,8.14864,0.999976
0.35,0.577438,1.00016,7.14301,6.14306,8.14292,1.0001
0.36,0.590462,1.00041,7.13716,6.13755,8.13691,1.00009
0.37,0.600486,1.00026,7.13121,6.1314,8.13105,1.00008
0.38,0.616485,1.00007,7.12513,6.12511,8.1251,1.00006
0.39,0.62654,1.00008,7.11891,6.11906,8.11892,1.00001
0.4,0.638509,1.00002,7.1126,6.11256,8.11259,1.00004
0.41,0.651192,1.00031,7.10614,6.10632,8.10587,1.00009
0.42,0.660624,1.00038,7.09958,6.09995,8.09937,1.00009
0.43,0.674675,1.0002,7.09291,6.09302,8.09283,1.0001
0.44,0.683652,1.0001,7.08611,6.08622,8.08592,0.999953
0.45,0.696302,0.999904,7.07922,6.07912,8.07945,1.00007
0.46,0.706217,1.00026,7.0722,6.0725,8.07194,0.999973
0.47,0.71703,1.00021,7.06509,6.06512,8.06499,1.00014
0.48,0.727231,1.00042,7.05787,6.05824,8.05753,1.00006
0.49,0.737205,1.00017,7.05055,6.05069,8.05051,1.00008
0.5,0.748482,1.00013,7.04312,6.04316,8.04295,1.00003
0.51,0.757343,1.00011,7.03559,6.03575,8.03553,0.999996
0.52,0.76872,1.00016,7.02795,6.02805,8.02795,1.00011
0.53,0.777001,1.00042,7.02023,6.0206,8.01983,1.00004
0.54,0.787841,1.00018,7.0124,6.01244,8.01243,1.00017
0.55,0.795807,1.00032,7.00448,6.00492,8.00418,0.999944
0.56,0.806446,0.999917,6.99646,5.99625,7.99668,1.00014
0.57,0.814095,1.00034,6.98837,5.98882,7.98796,0.999913
0.58,0.823644,1.0001,6.98017,5.98009,7.98034,1.00022
0.59,0.831741,1.0006,6.9719,5.9725,7.97132,1
0.6,0.839962,1.00008,6.96353,5.96337,7.96362,1.00021
0.61,0.848856,1.00036,6.95509,5.95562,7.95473,0.999916
0.62,0.855691,0.999925,6.94656,5.9463,7.94673,1.00014
0.63,0.865524,1.00037,6.93796,5.93839,7.93756,0.999963
0.64,0.870886,1.00015,6.92928,5.92926,7.92931,1.00018
0.65,0.880284,1.00049,6.92052,5.92093,7.92009,1.00007
0.66,0.886163,1.00017,6.91169,5.91174,7.91166,1.00013
0.67,0.895274,1.00025,6.90278,5.903,7.90257,1.00004
0.68,0.902448,1.00011,6.8938,5.89388,7.89379,1.00007
0.69,0.909968,1.00031,6.88473,5.88494,7.88441,1.00005
0.7,0.91849,1.00031,6.87559,5.87584,7.87546,1.00013
0.71,0.923677,1.00034,6.86638,5.8666,7.86612,1.0001
0.72,0.932351,1.00022,6.8571,5.85724,7.85698,1.0001
0.73,0.938115,1.00025,6.84775,5.84797,7.84759,1.00006
0.74,0.945318,1.00022,6.83833,5.83844,7.83812,1.00006
0.75,0.953122,1.0003,6.82884,5.82911,7.82872,1.00011
0.76,0.958244,1.00034,6.81928,5.81951,7.81902,1.0001
0.77,0.96628,1.0003,6.80966,5.80983,7.8095,1.00013
0.78,0.97223,1.00034,6.79997,5.80032,7.79976,1.00006
0.79,0.978458,1.00015,6.79021,5.79021,7.79005,1.00007
0.8,0.986138,1.00029,6.78039,5.78071,7.78027,1.00007
0.81,0.990628,1.00027,6.77051,5.77065,7.77036,1.00013
0.82,0.997165,1.00043,6.76057,5.76083,7.76015,1.00008
0.83,1.00409,1.0003,6.75057,5.7509,7.75053,1.00012
0.84,1.00845,1.00026,6.7405,5.74063,7.74024,1.00007
0.85,1.01513,1.00017,6.73038,5.73044,7.73033,1.00011
0.86,1.02107,1.00039,6.72021,5.72065,7.72003,1.00007
0.87,1.02532,1.00032,6.70997,5.71004,7.70965,1.00012
0.88,1.03179,1.00036,6.69968,5.69999,7.6995,1.00011
0.89,1.03727,1.00029,6.68934,5.68963,7.68927,1.00011
0.9,1.0419,1.00031,6.67894,5.67901,7.67854,1.00007
0.91,1.04822,1.00025,6.66849,5.66876,7.66847,1.0001
0.92,1.0534,1.00032,6.65799,5.65826,7.65783,1.0001
0.93,1.05764,1.00037,6.64743,5.64751,7.647,1.00011
0.94,1.06345,1.00036,6.63682,5.63723,7.63675,1.00012
0.95,1.06893,1.00031,6.62616,5.6264,7.62599,1.0001
0.96,1.07301,1.00028,6.61545,5.61547,7.6151,1.00009
0.97,1.07866,1.0003,6.60469,5.60508,7.60466,1.00009
0.98,1.08448,1.00034,6.59388,5.59412,7.59367,1.00011
0.99,1.0883,1.00038,6.58302,5.58313,7.5826,1.00012
1,1.09347,1.00034,6.5721,5.57249,7.57203,1.00011
1.01,1.09948,1.00033,6.56114,5.56142,7.56095,1.0001
1.02,1.10359,1.00031,6.55013,5.55019,7.54979,1.00011
1.03,1.10842,1.00033,6.53907,5.53943,7.53893,1.00008
1.04,1.11421,1.00033,6.52795,5.52821,7.5278,1.00013
1.05,1.11916,1.0004,6.51679,5.51697,7.51641,1.00011
1.06,1.12265,1.00035,6.50558,5.50588,7.50542,1.00012
1.07,1.12787,1.00034,6.49432,5.49458,7.4941,1.0001
1.08,1.13307,1.00032,6.48302,5.48323,7.48281,1.00011
1.09,1.1368,1.00038,6.47167,5.47196,7.47142,1.00011
1.1,1.14058,1.00036,6.46028,5.4605,7.46001,1.00012
1.11,1.14549,1.00036,6.44885,5.44916,7.44869,1.00012
1.12,1.15024,1.00034,6.43738,5.43762,7.43718,1.00012
1.13,1.15331,1.00035,6.42586,5.42605,7.42557,1.00011
1.14,1.15722,1.00035,6.4143,5.41458,7.41406,1.0001
1.15,1.16197,1.00037,6.4027,5.40305,7.40255,1.00012
1.16,1.16641,1.00038,6.39107,5.39125,7.39074,1.00012
1.17,1.16917,1.00038,6.37939,5.37966,7.37915,1.00013
1.18,1.17303,1.00037,6.36768,5.36797,7.36743,1.0001
1.19,1.17765,1.00036,6.35592,5.3562,7.35572,1.00012
1.2,1.18184,1.00036,6.34413,5.34435,7.34386,1.00012
1.21,1.18443,1.00037,6.3323,5.33256,7.33207,1.00013
1.22,1.18801,1.00041,6.32043,5.32071,7.32011,1.00011
1.23,1.1922,1.00039,6.30853,5.30887,7.30835,1.00013
1.24,1.19649,1.00036,6.29659,5.29681,7.29633,1.00012
1.25,1.19912,1.00036,6.28462,5.28484,7.28436,1.00012
1.26,1.20246,1.00041,6.2726,5.27289,7.27231,1.00012
1.27,1.20635,1.00041,6.26055,5.26091,7.26037,1.00013
1.28,1.21043,1.00039,6.24847,5.24872,7.2482,1.00013
1.29,1.21329,1.00038,6.23636,5.23663,7.23612,1.00013
1.3,1.21592,1.00039,6.22421,5.22446,7.22392,1.00012
1.31,1.21927,1.00039,6.21203,5.21235,7.21181,1.00012
1.32,1.22291,1.0004,6.19982,5.20013,7.19959,1.00013
1.33,1.22654,1.00038,6.18758,5.18784,7.18732,1.00013
1.34,1.2287,1.0004,6.17531,5.17555,7.17501,1.00013
1.35,1.23165,1.00042,6.163,5.1633,7.16272,1.00012
1.36,1.23512,1.00041,6.15066,5.15099,7.15043,1.00013
1.37,1.23873,1.00038,6.13829,5.13857,7.13806,1.00013
1.38,1.24185,1.00038,6.1259,5.12616,7.12564,1.00013
1.39,1.24403,1.00041,6.11347,5.11373,7.11317,1.00014
1.4,1.24677,1.00043,6.10101,5.10132,7.10072,1.00013
1.41,1.24999,1.00042,6.08852,5.08886,7.08829,1.00013
1.42,1.25351,1.00037,6.07601,5.07626,7.07577,1.00013
1.43,1.25635,1.00038,6.06346,5.06373,7.06322,1.00012
1.44,1.25819,1.00041,6.05089,5.05115,7.0506,1.00014
1.45,1.26094,1.00045,6.03829,5.03861,7.03798,1.00013
1.46,1.264,1.00044,6.02566,5.02602,7.02542,1.00014
1.47,1.26763,1.00038,6.01301,5.01328,7.01277,1.00012
1.48,1.27058,1.00036,6.00032,5.00056,7.00009,1.00012
1.49,1.27213,1.00042,5.98761,4.98787,6.98731,1.00014
1.5,1.27416,1.00048,5.97488,4.97521,6.97454,1.00015
1.51,1.2766,1.00047,5.96212,4.96248,6.9618,1.00013
1.52,1.27948,1.00041,5.94933,4.94965,6.9491,1.00014
1.53,1.28232,1.00035,5.93653,4.93676,6.9363,1.00012
1.54,1.2842,1.00038,5.9237,4.92395,6.92344,1.00013
1.55,1.28592,1.00047,5.91085,4.91116,6.91052,1.00015
1.56,1.28803,1.00049,5.89798,4.89834,6.89765,1.00015
1.57,1.2904,1.00046,5.88508,4.88545,6.88481,1.00014
1.58,1.29305,1.00037,5.87216,4.87244,6.87194,1.00013
1.59,1.29547,1.00034,5.85923,4.85947,6.85903,1.00012
1.6,1.29692,1.00042,5.84627,4.84654,6.84597,1.00014
1.61,1.29849,1.00051,5.83329,4.83365,6.83294,1.00015
1.62,1.30048,1.00051,5.82029,4.82066,6.81994,1.00015
1.63,1.30287,1.00045,5.80727,4.80762,6.80702,1.00014
1.64,1.30544,1.00035,5.79423,4.79447,6.79401,1.00012
1.65,1.3079,1.00034,5.78117,4.7814,6.78097,1.00012
1.66,1.30935,1.00045,5.76809,4.76838,6.76777,1.00014
1.67,1.31069,1.00053,5.75498,4.75536,6.75461,1.00016
1.68,1.31252,1.00052,5.74186,4.74224,6.7415,1.00015
1.69,1.31457,1.00045,5.72872,4.72908,6.72847,1.00014
1.7,1.3169,1.00035,5.71556,4.71581,6.71535,1.00012
1.71,1.3191,1.00032,5.70239,4.70261,6.70221,1.00012
1.72,1.32056,1.00044,5.6892,4.68949,6.6889,1.00014
1.73,1.32183,1.00054,5.67598,4.67635,6.6756,1.00016
1.74,1.32341,1.00053,5.66275,4.66313,6.66238,1.00016
1.75,1.3253,1.00047,5.64951,4.64987,6.6492,1.00013
1.76,1.3274,1.00037,5.63624,4.63652,6.63602,1.00012
1.77,1.32939,1.00031,5.62296,4.62317,6.62278,1.00012
1.78,1.33116,1.00041,5.60966,4.60996,6.60941,1.00013
1.79,1.33248,1.00054,5.59635,4.59671,6.59596,1.00016
1.8,1.33387,1.00056,5.58301,4.58341,6.58262,1.00017
1.81,1.336,1.00048,5.56966,4.57,6.56933,1.00014
1.82,1.33793,1.0004,5.55628,4.5566,6.55604,1.00012
1.83,1.34024,1.00034,5.54289,4.54314,6.5427,1.00012
1.84,1.3426,1.00034,5.52948,4.52972,6.52928,1.00012
1.85,1.3445,1.00047,5.51605,4.51639,6.51575,1.00015
1.86,1.34593,1.00057,5.5026,4.503,6.5022,1.00017
1.87,1.34758,1.00054,5.48913,4.4895,6.48875,1.00016
1.88,1.34925,1.00046,5.47564,4.47597,6.47534,1.00014
1.89,1.35115,1.0004,5.46214,4.46245,6.46189,1.00012
1.9,1.35319,1.00037,5.44862,4.44888,6.4484,1.00013
1.91,1.35523,1.00037,5.43508,4.43534,6.43487,1.00013
1.92,1.35705,1.00047,5.42152,4.42187,6.42122,1.00014
1.93,1.35864,1.00056,5.40794,4.40834,6.40754,1.00016
1.94,1.36009,1.00055,5.39435,4.39474,6.39397,1.00017
1.95,1.36156,1.00048,5.38074,4.38107,6.38041,1.00015
1.96,1.36324,1.00043,5.36711,4.36742,6.36682,1.00014
1.97,1.36507,1.00039,5.35347,4.35377,6.35324,1.00013
1.98,1.36706,1.00037,5.3398,4.34008,6.3396,1.00013
1.99,1.36901,1.00041,5.32613,4.32642,6.32588,1.00014
2,1.37083,1.00052,5.31243,4.31281,6.31209,1.00016
2.01,1.37225,1.00057,5.29872,4.29913,6.29832,1.00017
2.02,1.37376,1.00052,5.28499,4.28534,6.28463,1.00016
2.03,1.37532,1.00047,5.27124,4.27156,6.27092,1.00015
2.04,1.37699,1.00043,5.25747,4.25779,6.25719,1.00014
2.05,1.37865,1.00041,5.24369,4.24402,6.24345,1.00013
2.06,1.38035,1.00041,5.2299,4.2302,6.22966,1.00014
2.07,1.38211,1.00044,5.21609,4.21641,6.21582,1.00015
2.08,1.38389,1.0005,5.20226,4.20263,6.20194,1.00016
2.09,1.38529,1.00052,5.18842,4.18878,6.18806,1.00016
2.1,1.38636,1.00051,5.17456,4.17491,6.1742,1.00016
2.11,1.38749,1.0005,5.16069,4.16103,6.16035,1.00016
2.12,1.38881,1.00049,5.14681,4.14715,6.14648,1.00015
2.13,1.39012,1.00047,5.13291,4.13326,6.1326,1.00014
2.14,1.39163,1.00043,5.119,4.11933,6.11875,1.00014
2.15,1.39333,1.0004,5.10507,4.10537,6.10483,1.00013
2.16,1.39516,1.00042,5.09113,4.09143,6.09088,1.00014
2.17,1.39674,1.00049,5.07717,4.07754,6.07687,1.00015
2.18,1.39813,1.00053,5.0632,4.06357,6.06284,1.00016
2.19,1.3991,1.00055,5.04922,4.0496,6.04883,1.00017
2.2,1.40037,1.00052,5.03522,4.03557,6.03487,1.00016
2.21,1.40189,1.00048,5.02121,4.02154,6.02088,1.00015
2.22,1.4031,1.00045,5.00718,4.0075,6.00688,1.00014
2.23,1.40448,1.00044,4.99314,3.99348,5.99287,1.00013
2.24,1.40586,1.00044,4.97908,3.97942,5.97884,1.00015
2.25,1.40728,1.00045,4.96502,3.96535,5.96475,1.00015
2.26,1.40875,1.00046,4.95094,3.95128,5.95066,1.00015
2.27,1.41002,1.0005,4.93685,3.93721,5.93653,1.00015
2.28,1.41108,1.00052,4.92275,3.92311,5.92239,1.00016
2.29,1.41185,1.00054,4.90864,3.90901,5.90826,1.00017
2.3,1.4127,1.00053,4.89451,3.89487,5.89414,1.00017
2.31,1.41354,1.00052,4.88038,3.88074,5.88003,1.00016
2.32,1.41457,1.00047,4.86623,3.86657,5.86592,1.00015
2.33,1.41575,1.00044,4.85208,3.85241,5.8518,1.00013
2.34,1.41712,1.00043,4.83791,3.83824,5.83767,1.00014
2.35,1.41858,1.00045,4.82373,3.82406,5.82346,1.00015
2.36,1.41975,1.00047,4.80954,3.80988,5.80926,1.00016
2.37,1.421,1.0005,4.79534,3.79571,5.79503,1.00016
2.38,1.42225,1.00052,4.78113,3.78149,5.78078,1.00016
2.39,1.42333,1.00052,4.7669,3.76728,5.76655,1.00016
2.4,1.42407,1.00053,4.75267,3.75302,5.7523,1.00016
2.41,1.42481,1.00053,4.73842,3.73878,5.73806,1.00017
2.42,1.4257,1.00053,4.72417,3.72454,5.72381,1.00016
2.43,1.42667,1.0005,4.7099,3.71025,5.70957,1.00016
2.44,1.42776,1.00046,4.69562,3.69598,5.69533,1.00014
2.45,1.42871,1.00043,4.68134,3.68168,5.68109,1.00014
2.46,1.42976,1.00044,4.66705,3.66738,5.66679,1.00014
2.47,1.43082,1.00047,4.65274,3.65308,5.65247,1.00016
2.48,1.43183,1.0005,4.63843,3.6388,5.63813,1.00016
2.49,1.4328,1.00052,4.62411,3.62449,5.62378,1.00016
2.5,1.4338,1.00051,4.60979,3.61014,5.60944,1.00016
2.51,1.43448,1.00053,4.59545,3.59582,5.59508,1.00016
2.52,1.43519,1.00053,4.5811,3.58146,5.58074,1.00017
2.53,1.43608,1.00054,4.56674,3.5671,5.56637,1.00017
2.54,1.43685,1.00052,4.55237,3.55273,5.55203,1.00016
2.55,1.43779,1.00049,4.538,3.53835,5.53767,1.00015
2.56,1.43889,1.00047,4.52361,3.52396,5.5233,1.00014
2.57,1.4399,1.00045,4.50921,3.50956,5.50895,1.00014
2.58,1.4408,1.00045,4.49481,3.49516,5.49456,1.00015
2.59,1.44166,1.00048,4.4804,3.48075,5.48011,1.00016
2.6,1.44259,1.00049,4.46598,3.46633,5.46568,1.00016
2.61,1.44349,1.0005,4.45155,3.45192,5.45123,1.00016
2.62,1.44426,1.00051,4.43711,3.43748,5.43678,1.00016
2.63,1.44484,1.00054,4.42267,3.42306,5.4223,1.00016
2.64,1.44528,1.00056,4.40822,3.40862,5.40784,1.00017
2.65,1.4457,1.00055,4.39377,3.39414,5.39339,1.00017
2.66,1.44619,1.00053,4.37931,3.37967,5.37894,1.00017
2.67,1.44679,1.0005,4.36484,3.36519,5.36451,1.00016
2.68,1.44748,1.00049,4.35036,3.35072,5.35004,1.00015
2.69,1.44833,1.00049,4.33588,3.33624,5.33556,1.00015
2.7,1.44907,1.00048,4.32139,3.32176,5.3211,1.00015
2.71,1.44982,1.00046,4.30689,3.30726,5.30664,1.00015
2.72,1.4507,1.00047,4.29239,3.29274,5.29211,1.00015
2.73,1.45121,1.00046,4.27788,3.27823,5.27761,1.00016
2.74,1.4522,1.00049,4.26337,3.26374,5.26307,1.00016
2.75,1.45292,1.00052,4.24885,3.24922,5.24851,1.00016
2.76,1.45353,1.00054,4.23432,3.2347,5.23396,1.00017
2.77,1.4541,1.00056,4.21979,3.22019,5.21941,1.00017
2.78,1.45451,1.00055,4.20525,3.20563,5.20486,1.00017
2.79,1.45487,1.00053,4.1907,3.19106,5.19034,1.00017
2.8,1.45525,1.00053,4.17615,3.17651,5.17579,1.00017
2.81,1.45583,1.00052,4.16159,3.16194,5.16123,1.00017
2.82,1.4563,1.00052,4.14702,3.14739,5.14668,1.00016
2.83,1.45689,1.00051,4.13245,3.13284,5.13212,1.00016
2.84,1.45745,1.00048,4.11788,3.11824,5.11758,1.00015
2.85,1.45832,1.00046,4.1033,3.10365,5.10303,1.00015
2.86,1.45924,1.00045,4.08871,3.08905,5.08845,1.00015
2.87,1.46015,1.00047,4.07411,3.07446,5.07384,1.00016
2.88,1.46096,1.00049,4.05951,3.05986,5.05922,1.00016
2.89,1.46177,1.00051,4.0449,3.04527,5.04458,1.00017
2.9,1.46275,1.00053,4.03028,3.03066,5.02994,1.00017
2.91,1.46337,1.00054,4.01565,3.01603,5.01529,1.00017
2.92,1.46375,1.00055,4.00102,3.00141,5.00065,1.00017
2.93,1.46392,1.00056,3.98638,2.98678,4.986,1.00017
2.94,1.46418,1.00055,3.97174,2.97212,4.97136,1.00017
2.95,1.46444,1.00054,3.9571,2.95747,4.95673,1.00017
2.96,1.46477,1.00053,3.94245,2.94282,4.94209,1.00017
2.97,1.46504,1.00051,3.9278,2.92815,4.92746,1.00016
2.98,1.46548,1.00052,3.91314,2.91351,4.9128,1.00016
2.99,1.46581,1.0005,3.89848,2.89886,4.89816,1.00016
3,1.46624,1.00049,3.88382,2.8842,4.88352,1.00015
3.01,1.4667,1.00047,3.86915,2.86952,4.86888,1.00015
3.02,1.46734,1.00047,3.85448,2.85484,4.8542,1.00015
3.03,1.46801,1.00047,3.8398,2.84015,4.83953,1.00016
3.04,1.46853,1.00049,3.82512,2.82548,4.82483,1.00016
3.05,1.46896,1.00052,3.81044,2.81082,4.81012,1.00017
3.06,1.46948,1.00054,3.79575,2.79614,4.7954,1.00017
3.07,1.47001,1.00054,3.78106,2.78144,4.7807,1.00017
3.08,1.4704,1.00055,3.76636,2.76676,4.76599,1.00017
3.09,1.47058,1.00056,3.75166,2.75205,4.75127,1.00017
3.1,1.47067,1.00055,3.73695,2.73732,4.73656,1.00017
3.11,1.47085,1.00055,3.72224,2.72262,4.72187,1.00017
3.12,1.47113,1.00055,3.70753,2.7079,4.70716,1.00017
3.13,1.47138,1.00052,3.69281,2.69317,4.69246,1.00017
3.14,1.47159,1.00051,3.6781,2.67846,4.67776,1.00016
3.15,1.47172,1.00051,3.66337,2.66375,4.66304,1.00016
3.16,1.47209,1.00051,3.64865,2.64903,4.64833,1.00016
3.17,1.47248,1.0005,3.63393,2.63432,4.63363,1.00015
3.18,1.47289,1.00048,3.6192,2.61957,4.61893,1.00016
3.19,1.47345,1.00047,3.60446,2.60482,4.60418,1.00015
3.2,1.47411,1.00047,3.58973,2.59007,4.58946,1.00016
3.21,1.4747,1.00049,3.57498,2.57534,4.57469,1.00016
3.22,1.4743,1.00052,3.56024,2.56062,4.55992,1.00017
3.23,1.47448,1.00054,3.5455,2.54589,4.54516,1.00017
3.24,1.47518,1.00054,3.53076,2.53114,4.5304,1.00017
3.25,1.47552,1.00055,3.51601,2.5164,4.51564,1.00017
3.26,1.47576,1.00055,3.50126,2.50164,4.50088,1.00017
3.27,1.47565,1.00056,3.4865,2.48689,4.48611,1.00017
3.28,1.47567,1.00057,3.47174,2.47213,4.47136,1.00018
3.29,1.4757,1.00056,3.45699,2.45737,4.4566,1.00018
3.3,1.47561,1.00054,3.44223,2.4426,4.44186,1.00017
3.31,1.47559,1.00052,3.42747,2.42782,4.42712,1.00017
3.32,1.4757,1.00052,3.41271,2.41307,4.41236,1.00016
3.33,1.47585,1.00052,3.39795,2.39833,4.39761,1.00016
3.34,1.47593,1.00052,3.38318,2.38358,4.38286,1.00016
3.35,1.47614,1.0005,3.36842,2.36881,4.36813,1.00015
3.36,1.47645,1.00047,3.35365,2.35403,4.35339,1.00015
3.37,1.47649,1.00047,3.33889,2.33925,4.33861,1.00016
3.38,1.47674,1.00048,3.32412,2.32448,4.32384,1.00016
3.39,1.47698,1.00051,3.30936,2.30973,4.30905,1.00017
3.4,1.47716,1.00053,3.29459,2.29498,4.29427,1.00017
3.41,1.47741,1.00054,3.27982,2.28021,4.27948,1.00017
3.42,1.47763,1.00054,3.26505,2.26544,4.2647,1.00017
3.43,1.47776,1.00055,3.25028,2.25068,4.24991,1.00017
3.44,1.47758,1.00057,3.2355,2.23591,4.23512,1.00017
3.45,1.4775,1.00058,3.22073,2.22113,4.22033,1.00018
3.46,1.47737,1.00056,3.20596,2.20634,4.20557,1.00018
3.47,1.47721,1.00055,3.19118,2.19156,4.1908,1.00017
3.48,1.4772,1.00054,3.17641,2.17678,4.17604,1.00017
3.49,1.47713,1.00053,3.16163,2.162,4.16128,1.00017
3.5,1.47715,1.00054,3.14686,2.14723,4.1465,1.00017
3.51,1.47717,1.00054,3.13208,2.13247,4.13173,1.00016
3.52,1.47737,1.00051,3.11731,2.11769,4.11699,1.00016
3.53,1.47748,1.00049,3.10253,2.10291,4.10223,1.00015
3.54,1.47795,1.00047,3.08775,2.08811,4.08748,1.00015
3.55,1.47802,1.00048,3.07297,2.07334,4.0727,1.00015
3.56,1.47825,1.00049,3.05819,2.05856,4.0579,1.00017
3.57,1.47852,1.00051,3.0434,2.04377,4.0431,1.00017
3.58,1.47887,1.00052,3.02862,2.029,4.02831,1.00017
3.59,1.47911,1.00052,3.01383,2.01421,4.01351,1.00017
3.6,1.47912,1.00053,2.99904,1.99943,3.9987,1.00017
3.61,1.47913,1.00056,2.98426,1.98466,3.98389,1.00018
3.62,1.47894,1.00059,2.96947,1.9699,3.96908,1.00018
3.63,1.47872,1.00059,2.95469,1.9551,3.95428,1.00018
3.64,1.47829,1.00056,2.9399,1.94029,3.93951,1.00018
3.65,1.47771,1.00055,2.92512,1.9255,3.92475,1.00017
3.66,1.4774,1.00055,2.91034,1.91072,3.90997,1.00017
3.67,1.4772,1.00055,2.89557,1.89595,3.8952,1.00018
3.68,1.47696,1.00055,2.88079,1.88118,3.88043,1.00017
3.69,1.47677,1.00054,2.86602,1.86641,3.86566,1.00017
3.7,1.47665,1.00052,2.85125,1.85163,3.85092,1.00016
3.71,1.47663,1.00049,2.83648,1.83686,3.83618,1.00015
3.72,1.47648,1.00049,2.82171,1.8221,3.82142,1.00015
3.73,1.47642,1.00049,2.80695,1.80733,3.80668,1.00016
3.74,1.47613,1.00051,2.79218,1.79257,3.79188,1.00017
3.75,1.47597,1.0005,2.77742,1.7778,3.77713,1.00017
3.76,1.47595,1.00051,2.76266,1.76304,3.76236,1.00017
3.77,1.47575,1.00052,2.74791,1.7483,3.74759,1.00017
3.78,1.4756,1.00055,2.73316,1.73356,3.73281,1.00017
3.79,1.47518,1.00057,2.71841,1.71881,3.71803,1.00018
