time,velocity,ratio,centerX,Xmax,Xmin,Ymax
0,0,1,4.75,3.75,5.75,1
0.01,0.0197739,0.99999,4.74991,3.74989,5.74992,1.00001
0.02,0.0391883,1.00001,4.74963,3.74961,5.74963,1.00001
0.03,0.0582084,1.00003,4.74916,3.74914,5.74913,1.00002
0.04,0.076899,1.00006,4.7485,3.74849,5.74843,1.00003
0.05,0.0952982,1.00009,4.74765,3.74765,5.74753,1.00003
0.06,0.113259,1.00013,4.74663,3.74663,5.74644,1.00004
0.07,0.130928,1.00018,4.74543,3.74544,5.74516,1.00004
0.08,0.148282,1.00023,4.74405,3.74407,5.7437,1.00004
0.09,0.165341,1.00029,4.7425,3.74255,5.74206,1.00004
0.1,0.182092,1.00038,4.74078,3.74086,5.74024,1.00007
0.11,0.198559,1.00048,4.7389,3.73902,5.73825,1.0001
0.12,0.21474,1.00059,4.73685,3.73702,5.7361,1.00013
0.13,0.230616,1.00069,4.73464,3.73488,5.73382,1.00016
0.14,0.246208,1.00078,4.73227,3.73259,5.7314,1.00019
0.15,0.261558,1.00089,4.72975,3.73014,5.72881,1.00023
0.16,0.276658,1.00101,4.72707,3.72755,5.72605,1.00026
0.17,0.291457,1.00118,4.72425,3.72483,5.72309,1.00031
0.18,0.306015,1.00141,4.72127,3.72199,5.71994,1.00038
0.19,0.320327,1.00165,4.71816,3.71902,5.71664,1.00046
0.2,0.334416,1.00191,4.7149,3.71593,5.71319,1.00054
0.21,0.348237,1.00218,4.7115,3.7127,5.70957,1.00061
0.22,0.361826,1.00251,4.70796,3.70935,5.70574,1.0007
0.23,0.375167,1.00292,4.70429,3.7059,5.70172,1.00083
0.24,0.388268,1.00334,4.70049,3.70234,5.69758,1.00095
0.25,0.401247,1.00378,4.69656,3.69866,5.69327,1.00107
0.26,0.413872,1.00425,4.69249,3.69485,5.68876,1.00119
0.27,0.426243,1.00479,4.68831,3.69092,5.68409,1.00136
0.28,0.438515,1.00537,4.68399,3.68689,5.67925,1.00153
0.29,0.45042,1.00598,4.67956,3.68276,5.67423,1.00169
0.3,0.462213,1.00665,4.67501,3.67855,5.66907,1.00188
0.31,0.473717,1.00738,4.67034,3.67426,5.66379,1.0021
0.32,0.484824,1.00812,4.66556,3.66989,5.65837,1.00232
0.33,0.495942,1.00891,4.66067,3.66542,5.65279,1.00254
0.34,0.506784,1.00977,4.65567,3.66086,5.64708,1.00281
0.35,0.517455,1.01068,4.65056,3.65623,5.64119,1.00308
0.36,0.527932,1.01161,4.64534,3.65153,5.63516,1.00334
0.37,0.538113,1.01265,4.64002,3.64674,5.62897,1.00366
0.38,0.548028,1.01374,4.6346,3.6419,5.62262,1.00397
0.39,0.557662,1.01487,4.62908,3.637,5.61612,1.00428
0.4,0.567095,1.0161,4.62347,3.63198,5.60943,1.00465
0.41,0.576333,1.01731,4.61776,3.62686,5.60267,1.005
0.42,0.585357,1.01854,4.61196,3.62166,5.5958,1.00537
0.43,0.594277,1.01988,4.60608,3.61644,5.58879,1.00578
0.44,0.602784,1.02125,4.6001,3.61117,5.58165,1.00618
0.45,0.611195,1.0227,4.59404,3.60585,5.57434,1.00659
0.46,0.619487,1.02422,4.58789,3.60045,5.56691,1.00705
0.47,0.627559,1.02578,4.58167,3.595,5.55931,1.00748
0.48,0.63539,1.02744,4.57536,3.5895,5.55158,1.00796
0.49,0.643119,1.02916,4.56898,3.58392,5.54367,1.00845
0.5,0.65066,1.0309,4.56252,3.57831,5.53568,1.00892
0.51,0.6581,1.03275,4.55598,3.57263,5.52753,1.00946
0.52,0.665157,1.0346,4.54937,3.56686,5.51928,1.00998
0.53,0.672108,1.03652,4.54269,3.56102,5.51087,1.01052
0.54,0.678875,1.03851,4.53595,3.55515,5.50235,1.01109
0.55,0.685381,1.04055,4.52913,3.54925,5.49367,1.01164
0.56,0.691807,1.04272,4.52226,3.54331,5.48488,1.01225
0.57,0.698006,1.04489,4.51531,3.53732,5.47598,1.01285
0.58,0.704055,1.04715,4.50831,3.53129,5.46696,1.01346
0.59,0.709931,1.04947,4.50125,3.52523,5.45782,1.0141
0.6,0.715671,1.05183,4.49413,3.51913,5.44856,1.01471
0.61,0.721262,1.05432,4.48695,3.51302,5.43919,1.0154
0.62,0.726667,1.0568,4.47972,3.50684,5.42971,1.01605
0.63,0.731825,1.05935,4.47243,3.50056,5.4201,1.01673
0.64,0.736744,1.06194,4.46509,3.49423,5.41039,1.01742
0.65,0.741592,1.06463,4.45771,3.48792,5.40055,1.01812
0.66,0.746315,1.06742,4.45027,3.48161,5.39062,1.01886
0.67,0.750808,1.07022,4.44279,3.47525,5.38059,1.01957
0.68,0.755318,1.07316,4.43527,3.46888,5.37045,1.02035
0.69,0.759524,1.07614,4.4277,3.46248,5.36017,1.02109
0.7,0.763659,1.07921,4.42009,3.45605,5.34981,1.02188
0.71,0.76762,1.08231,4.41244,3.44961,5.33938,1.02266
0.72,0.771457,1.08546,4.40475,3.44309,5.32887,1.02346
0.73,0.775104,1.08866,4.39702,3.43653,5.31825,1.02428
0.74,0.778492,1.0919,4.38926,3.42993,5.30754,1.02508
0.75,0.781949,1.09527,4.38146,3.42336,5.29673,1.02593
0.76,0.78525,1.09864,4.37363,3.41676,5.28585,1.02673
0.77,0.788384,1.10214,4.36577,3.41014,5.27488,1.0276
0.78,0.791406,1.10565,4.35787,3.40351,5.26384,1.02844
0.79,0.794272,1.10925,4.34995,3.39686,5.25272,1.02931
0.8,0.797005,1.11291,4.342,3.39021,5.24151,1.03017
0.81,0.799602,1.11663,4.33402,3.38353,5.23022,1.03104
0.82,0.802097,1.12036,4.32601,3.37677,5.2189,1.03192
0.83,0.804626,1.1241,4.31798,3.36997,5.2075,1.03279
0.84,0.807006,1.12796,4.30993,3.36319,5.19604,1.03369
0.85,0.809275,1.13187,4.30185,3.35643,5.1845,1.03457
0.86,0.811477,1.13588,4.29375,3.34964,5.1729,1.0355
0.87,0.813517,1.1399,4.28563,3.34285,5.16123,1.03638
0.88,0.815513,1.14403,4.27749,3.33603,5.14952,1.03734
0.89,0.817378,1.14816,4.26933,3.32921,5.13775,1.03824
0.9,0.819143,1.15238,4.26115,3.32236,5.12592,1.03919
0.91,0.820917,1.1566,4.25296,3.31545,5.11404,1.04012
0.92,0.822493,1.16087,4.24474,3.3085,5.10211,1.04107
0.93,0.824071,1.1652,4.23651,3.30156,5.09013,1.04202
0.94,0.825413,1.16958,4.22827,3.29463,5.07811,1.04296
0.95,0.82684,1.17403,4.22001,3.28768,5.06604,1.04392
0.96,0.828159,1.17849,4.21174,3.28073,5.05394,1.04486
0.97,0.829376,1.18305,4.20346,3.27377,5.04181,1.04584
0.98,0.830407,1.1876,4.19516,3.26681,5.02964,1.04676
0.99,0.831465,1.19226,4.18686,3.25986,5.01743,1.04775
1,0.832489,1.19686,4.17854,3.25282,5.00521,1.04868
1.01,0.833394,1.20154,4.17022,3.24575,4.99295,1.04967
1.02,0.834396,1.20625,4.16188,3.23871,4.98067,1.05062
1.03,0.835318,1.21105,4.15353,3.23169,4.96839,1.05161
1.04,0.8361,1.21584,4.14518,3.22465,4.95609,1.05258
1.05,0.836821,1.22071,4.13682,3.21762,4.94378,1.05357
1.06,0.837574,1.22558,4.12845,3.21056,4.93146,1.05455
1.07,0.838224,1.2305,4.12008,3.2035,4.91912,1.05553
1.08,0.838946,1.23544,4.11169,3.19642,4.90678,1.05653
1.09,0.839461,1.24036,4.1033,3.18929,4.89444,1.0575
1.1,0.840065,1.24532,4.09491,3.18212,4.88209,1.0585
1.11,0.840576,1.25029,4.08651,3.17498,4.86973,1.05947
1.12,0.841051,1.25535,4.07811,3.16784,4.85738,1.06048
1.13,0.841498,1.26035,4.0697,3.16069,4.84502,1.06143
1.14,0.841911,1.26547,4.06128,3.15354,4.83268,1.06245
1.15,0.842266,1.27052,4.05287,3.14639,4.82033,1.06339
1.16,0.842596,1.27564,4.04444,3.13925,4.80803,1.06439
1.17,0.842962,1.28066,4.03602,3.13207,4.79581,1.06534
1.18,0.843255,1.28562,4.02759,3.12483,4.7837,1.06634
1.19,0.843544,1.29051,4.01916,3.11759,4.77167,1.0673
1.2,0.843755,1.29541,4.01073,3.11038,4.75973,1.06829
1.21,0.843969,1.30025,4.00229,3.10318,4.74789,1.06927
1.22,0.844127,1.30504,3.99385,3.09595,4.73612,1.07025
1.23,0.844295,1.30981,3.98542,3.08873,4.72443,1.07123
1.24,0.84445,1.31451,3.97698,3.08149,4.71282,1.0722
1.25,0.844586,1.3192,3.96853,3.07425,4.70129,1.07319
1.26,0.844739,1.32377,3.96009,3.06696,4.68982,1.07414
1.27,0.844868,1.32833,3.95165,3.05964,4.67842,1.07514
1.28,0.844986,1.33281,3.9432,3.05231,4.66707,1.07608
1.29,0.845066,1.33733,3.93475,3.04501,4.6558,1.07708
1.3,0.845143,1.34173,3.9263,3.03769,4.64459,1.07801
1.31,0.845202,1.34619,3.91786,3.03038,4.63341,1.07899
1.32,0.84521,1.35052,3.90941,3.02306,4.62232,1.07992
1.33,0.845238,1.35493,3.90096,3.01576,4.61127,1.0809
1.34,0.845187,1.35923,3.89251,3.00845,4.60028,1.08183
1.35,0.845192,1.3635,3.88406,3.00107,4.58935,1.08281
1.36,0.845305,1.36766,3.87561,2.99364,4.57846,1.08375
1.37,0.845247,1.37187,3.86716,2.98628,4.56765,1.08472
1.38,0.845209,1.37607,3.85871,2.97893,4.55684,1.08566
1.39,0.845143,1.38024,3.85026,2.97157,4.54611,1.08662
1.4,0.845026,1.3844,3.84181,2.96422,4.53539,1.08757
1.41,0.844877,1.38851,3.83337,2.95687,4.52475,1.08851
1.42,0.844782,1.39263,3.82492,2.94951,4.51413,1.08946
1.43,0.844688,1.39664,3.81648,2.94212,4.50357,1.0904
1.44,0.844524,1.40064,3.80804,2.93469,4.49304,1.09135
1.45,0.844478,1.40458,3.7996,2.92726,4.48254,1.09226
1.46,0.844438,1.40856,3.79115,2.91987,4.47211,1.09321
1.47,0.844307,1.41247,3.78271,2.91246,4.46168,1.09411
1.48,0.844127,1.41638,3.77427,2.90507,4.45133,1.09505
1.49,0.844085,1.42023,3.76584,2.89767,4.44099,1.09594
1.5,0.843952,1.42416,3.7574,2.89029,4.43069,1.09689
1.51,0.843904,1.42797,3.74896,2.8829,4.42042,1.09777
1.52,0.843779,1.43182,3.74053,2.87545,4.41017,1.09872
1.53,0.843565,1.43551,3.7321,2.86796,4.39997,1.0996
1.54,0.843388,1.43932,3.72366,2.86053,4.38981,1.10055
1.55,0.843211,1.44306,3.71523,2.85312,4.37965,1.10144
1.56,0.843045,1.44684,3.70681,2.8457,4.36953,1.10238
1.57,0.842634,1.45053,3.69838,2.83828,4.35946,1.10326
1.58,0.842457,1.45429,3.68996,2.83086,4.34939,1.10419
1.59,0.842287,1.45798,3.68154,2.82345,4.33935,1.10507
1.6,0.842089,1.4616,3.67311,2.81599,4.32937,1.10598
1.61,0.841851,1.46518,3.6647,2.80849,4.31939,1.10687
1.62,0.841609,1.46879,3.65629,2.80101,4.30942,1.10777
1.63,0.841377,1.47236,3.64787,2.79356,4.29952,1.10866
1.64,0.841112,1.4759,3.63946,2.78609,4.28963,1.10953
1.65,0.840898,1.47946,3.63106,2.77864,4.27974,1.11041
1.66,0.840744,1.48297,3.62265,2.77118,4.26988,1.11126
1.67,0.840498,1.48651,3.61425,2.76375,4.26007,1.11215
1.68,0.840259,1.48997,3.60585,2.75629,4.25027,1.113
1.69,0.839552,1.49344,3.59745,2.74877,4.24047,1.11389
1.7,0.839289,1.49683,3.58906,2.74123,4.2307,1.11474
1.71,0.839117,1.50028,3.58067,2.73377,4.22099,1.11563
1.72,0.838999,1.50368,3.57229,2.7263,4.21128,1.11647
1.73,0.838978,1.50716,3.5639,2.71884,4.20158,1.11736
1.74,0.838922,1.51053,3.55551,2.71138,4.1919,1.11819
1.75,0.838842,1.51396,3.54713,2.70391,4.18226,1.11908
1.76,0.838652,1.51728,3.53874,2.69644,4.17263,1.1199
1.77,0.838554,1.52067,3.53036,2.68891,4.16299,1.12079
1.78,0.838409,1.52393,3.52198,2.68138,4.15336,1.1216
1.79,0.838298,1.52728,3.5136,2.67387,4.14378,1.12249
1.8,0.83816,1.5305,3.50522,2.66636,4.13423,1.12329
1.81,0.838024,1.53383,3.49684,2.65884,4.12466,1.12416
1.82,0.837866,1.53706,3.48846,2.65132,4.1151,1.12497
1.83,0.837636,1.54039,3.48009,2.64381,4.10554,1.12581
1.84,0.837485,1.54356,3.47172,2.63631,4.09606,1.1266
1.85,0.837303,1.54675,3.46335,2.62877,4.08658,1.12744
1.86,0.837157,1.54982,3.45498,2.62116,4.07712,1.12823
1.87,0.837031,1.553,3.44661,2.6136,4.06765,1.12906
1.88,0.836856,1.55616,3.43824,2.60607,4.05817,1.12985
1.89,0.836708,1.55932,3.42988,2.59852,4.04874,1.13068
1.9,0.83657,1.56243,3.42152,2.59099,4.03933,1.13147
1.91,0.836364,1.56559,3.41315,2.58344,4.02992,1.1323
1.92,0.83626,1.5687,3.40479,2.5759,4.02052,1.13309
1.93,0.836141,1.57183,3.39644,2.56832,4.01111,1.1339
1.94,0.835967,1.57487,3.38808,2.56071,4.00172,1.13469
1.95,0.83583,1.5779,3.37972,2.55311,3.99237,1.1355
1.96,0.835689,1.58094,3.37137,2.54552,3.98301,1.13629
1.97,0.835479,1.58398,3.36301,2.53793,3.97367,1.13709
1.98,0.835305,1.58701,3.35466,2.53034,3.96434,1.13788
1.99,0.835098,1.59003,3.34631,2.52275,3.95501,1.13867
2,0.834912,1.59306,3.33797,2.51518,3.9457,1.13946
2.01,0.834712,1.59603,3.32962,2.50759,3.93643,1.14023
2.02,0.834578,1.59893,3.32128,2.49994,3.92716,1.14101
2.03,0.834319,1.60182,3.31294,2.49229,3.91787,1.14177
2.04,0.834052,1.60478,3.3046,2.48468,3.9086,1.14254
2.05,0.833898,1.60774,3.29626,2.47709,3.89933,1.1433
2.06,0.833658,1.61072,3.28793,2.46949,3.89007,1.14407
2.07,0.833469,1.61363,3.27959,2.4619,3.88085,1.14483
2.08,0.833236,1.61657,3.27126,2.45431,3.87164,1.1456
2.09,0.832994,1.61949,3.26293,2.44672,3.86243,1.14636
2.1,0.83278,1.62238,3.25461,2.43908,3.85322,1.14713
2.11,0.832652,1.62522,3.24628,2.43143,3.84402,1.14789
2.12,0.832428,1.6281,3.23796,2.4238,3.83484,1.14866
2.13,0.832186,1.63099,3.22964,2.41619,3.82564,1.14941
2.14,0.831972,1.63384,3.22132,2.40857,3.81651,1.15017
2.15,0.831737,1.63668,3.21301,2.40097,3.80736,1.15091
2.16,0.831578,1.63956,3.2047,2.39337,3.79822,1.15167
2.17,0.831379,1.64242,3.19639,2.38579,3.78908,1.15239
2.18,0.831152,1.64526,3.18808,2.37816,3.77994,1.15315
2.19,0.830909,1.64799,3.17977,2.37048,3.77081,1.15387
2.2,0.830702,1.65082,3.17146,2.36284,3.76168,1.15462
2.21,0.830474,1.65362,3.16316,2.35523,3.75256,1.15533
2.22,0.830205,1.65645,3.15486,2.34762,3.74348,1.15608
2.23,0.829933,1.6592,3.14656,2.34002,3.7344,1.15677
2.24,0.829695,1.66201,3.13827,2.33242,3.72532,1.15751
2.25,0.829427,1.66476,3.12998,2.32483,3.71626,1.15819
2.26,0.82917,1.66751,3.12168,2.31719,3.7072,1.15893
2.27,0.828973,1.67017,3.1134,2.30953,3.69814,1.15961
2.28,0.8288,1.67291,3.10511,2.30188,3.68909,1.16034
2.29,0.828561,1.67564,3.09683,2.29426,3.68002,1.16103
2.3,0.828282,1.67839,3.08855,2.28662,3.67099,1.16175
2.31,0.828041,1.68107,3.08027,2.27901,3.66198,1.16244
2.32,0.827844,1.68382,3.07199,2.27139,3.65297,1.16316
2.33,0.82756,1.68653,3.06372,2.2638,3.64396,1.16384
2.34,0.827294,1.68928,3.05545,2.25619,3.63496,1.16456
2.35,0.827077,1.6919,3.04718,2.24852,3.62595,1.16524
2.36,0.826484,1.69457,3.03891,2.24083,3.61695,1.16596
2.37,0.826269,1.69727,3.03065,2.23322,3.60793,1.16662
2.38,0.826002,1.70002,3.02239,2.22561,3.59894,1.16734
2.39,0.825723,1.70269,3.01414,2.21802,3.58996,1.168
2.4,0.825576,1.70539,3.00588,2.21042,3.58103,1.16871
2.41,0.825354,1.70802,2.99764,2.20283,3.57209,1.16936
2.42,0.825149,1.71073,2.98938,2.19523,3.56314,1.17007
2.43,0.824926,1.71328,2.98114,2.18758,3.5542,1.1707
2.44,0.82474,1.71594,2.97289,2.17992,3.54525,1.17141
2.45,0.824522,1.71851,2.96465,2.1723,3.53631,1.17203
2.46,0.824266,1.72118,2.95641,2.16468,3.52737,1.17272
2.47,0.824005,1.72374,2.94817,2.15706,3.51844,1.17333
2.48,0.823823,1.72642,2.93994,2.14945,3.50951,1.17402
2.49,0.82359,1.72903,2.9317,2.14186,3.50058,1.17463
2.5,0.823181,1.7317,2.92347,2.13427,3.49168,1.17531
2.51,0.822907,1.73421,2.91524,2.12663,3.48278,1.17593
2.52,0.822652,1.73673,2.90702,2.11894,3.4739,1.17661
2.53,0.822395,1.73925,2.8988,2.11131,3.46502,1.17723
2.54,0.82206,1.74184,2.89057,2.10369,3.45616,1.17789
2.55,0.8218,1.74438,2.88236,2.09608,3.44729,1.17851
2.56,0.821558,1.74699,2.87414,2.08848,3.43842,1.17917
2.57,0.82135,1.74954,2.86593,2.08087,3.42955,1.17979
2.58,0.821077,1.75215,2.85772,2.07327,3.42069,1.18044
2.59,0.820791,1.75464,2.84952,2.06562,3.41183,1.18105
2.6,0.820406,1.75714,2.84132,2.05795,3.40297,1.1817
2.61,0.820186,1.7596,2.83311,2.0503,3.39412,1.1823
2.62,0.819935,1.76211,2.82492,2.04266,3.38531,1.18294
2.63,0.81952,1.76455,2.81672,2.03503,3.37649,1.18354
2.64,0.819245,1.76706,2.80853,2.02741,3.36768,1.18417
2.65,0.818944,1.76952,2.80034,2.01979,3.35887,1.18476
2.66,0.818626,1.77207,2.79216,2.01221,3.35007,1.18539
2.67,0.818288,1.77448,2.78398,2.00458,3.34127,1.18597
2.68,0.817895,1.77688,2.7758,1.9969,3.33249,1.18659
2.69,0.817549,1.77925,2.76763,1.98925,3.32371,1.18716
2.7,0.817203,1.78174,2.75945,1.98165,3.31493,1.18778
2.71,0.816843,1.78415,2.75129,1.97405,3.30615,1.18834
2.72,0.816462,1.78666,2.74312,1.96645,3.29737,1.18895
2.73,0.815398,1.78908,2.73496,1.95886,3.2886,1.18951
2.74,0.815042,1.79159,2.72681,1.9513,3.27985,1.19011
2.75,0.814552,1.794,2.71867,1.9437,3.27111,1.19068
2.76,0.814,1.79639,2.71053,1.93608,3.26239,1.19128
2.77,0.813477,1.79873,2.70239,1.92846,3.25368,1.19185
2.78,0.812901,1.80116,2.69427,1.92088,3.24497,1.19245
2.79,0.812401,1.80356,2.68614,1.9133,3.23626,1.19302
2.8,0.811956,1.80599,2.67802,1.90573,3.22757,1.19361
2.81,0.811571,1.80841,2.6699,1.89817,3.21888,1.19419
2.82,0.811169,1.81084,2.6618,1.89063,3.21021,1.19477
2.83,0.810744,1.81327,2.65369,1.8831,3.20154,1.19535
2.84,0.810345,1.81562,2.64559,1.8755,3.19288,1.19593
2.85,0.809921,1.81794,2.63749,1.86789,3.18421,1.1965
2.86,0.809486,1.82034,2.62939,1.86033,3.17556,1.19707
2.87,0.809045,1.82276,2.6213,1.8528,3.16689,1.19764
2.88,0.808662,1.82517,2.61321,1.84526,3.15824,1.19821
2.89,0.808294,1.82758,2.60514,1.83774,3.1496,1.19877
2.9,0.807893,1.83,2.59705,1.83021,3.14096,1.19933
2.91,0.807484,1.83239,2.58898,1.82269,3.13233,1.19988
2.92,0.807102,1.83472,2.58091,1.81513,3.12372,1.20044
2.93,0.806661,1.837,2.57285,1.80756,3.11512,1.20099
2.94,0.806131,1.83935,2.56479,1.80002,3.10651,1.20155
2.95,0.805651,1.84166,2.55673,1.79249,3.09793,1.20208
2.96,0.80525,1.84399,2.54868,1.78496,3.08935,1.20264
2.97,0.80488,1.8463,2.54063,1.77744,3.08078,1.20317
2.98,0.804472,1.84862,2.53259,1.76994,3.07221,1.20371
2.99,0.804049,1.85096,2.52454,1.76246,3.06365,1.20422
3,0.803636,1.85328,2.51651,1.75495,3.05509,1.20476
3.01,0.803184,1.8555,2.50848,1.74738,3.04652,1.20528
3.02,0.802793,1.85776,2.50045,1.73983,3.03796,1.20581
3.03,0.802403,1.8601,2.49243,1.73234,3.02941,1.20633
3.04,0.801957,1.86241,2.48441,1.72485,3.02087,1.20685
3.05,0.801547,1.86478,2.47639,1.71739,3.01233,1.20739
3.06,0.801155,1.86711,2.46838,1.70992,3.00379,1.20791
3.07,0.800681,1.86951,2.46038,1.70246,2.99526,1.20845
3.08,0.800258,1.87182,2.45237,1.69499,2.98674,1.20896
3.09,0.799783,1.87415,2.44438,1.68749,2.97821,1.2095
3.1,0.799345,1.87641,2.43638,1.68,2.96971,1.21001
3.11,0.798904,1.87876,2.4284,1.67254,2.96121,1.21055
3.12,0.798452,1.88103,2.42041,1.66508,2.95272,1.21105
3.13,0.798039,1.88336,2.41243,1.65763,2.94425,1.21159
3.14,0.79757,1.88564,2.40446,1.65018,2.93578,1.21209
3.15,0.797121,1.88801,2.39648,1.64276,2.92731,1.21262
3.16,0.796674,1.89035,2.38852,1.63535,2.91884,1.21312
3.17,0.796115,1.89265,2.38056,1.6279,2.91039,1.21365
3.18,0.795652,1.89486,2.3726,1.62042,2.90193,1.21415
3.19,0.795177,1.89717,2.36465,1.61299,2.89349,1.21467
3.2,0.794731,1.89948,2.3567,1.60558,2.88505,1.21517
3.21,0.794271,1.90182,2.34876,1.59817,2.87662,1.21569
3.22,0.793767,1.90414,2.34082,1.59078,2.86819,1.21619
3.23,0.793243,1.90649,2.33289,1.58339,2.85976,1.2167
3.24,0.792758,1.90882,2.32496,1.57601,2.85134,1.21719
3.25,0.79179,1.91113,2.31704,1.56861,2.84293,1.2177
3.26,0.791149,1.91337,2.30913,1.56119,2.83454,1.21819
3.27,0.790577,1.91563,2.30123,1.55378,2.82615,1.21869
3.28,0.790038,1.91792,2.29333,1.5464,2.81776,1.21919
3.29,0.789532,1.92022,2.28543,1.53904,2.80938,1.21967
3.3,0.789064,1.92253,2.27754,1.53168,2.801,1.22015
3.31,0.788523,1.92488,2.26966,1.52434,2.79262,1.22064
3.32,0.787987,1.92721,2.26177,1.51702,2.78426,1.22112
3.33,0.787501,1.92962,2.2539,1.50972,2.7759,1.22162
3.34,0.786894,1.93189,2.24603,1.50237,2.76755,1.22209
3.35,0.78613,1.93417,2.23817,1.49499,2.7592,1.2226
3.36,0.78559,1.93647,2.23031,1.48767,2.75087,1.22307
3.37,0.785013,1.9389,2.22246,1.48038,2.74253,1.22359
3.38,0.784404,1.94125,2.21462,1.4731,2.73421,1.22406
3.39,0.783752,1.9437,2.20678,1.46584,2.72589,1.22458
3.4,0.783153,1.94606,2.19895,1.45858,2.71758,1.22505
3.41,0.782549,1.94853,2.19112,1.45134,2.70929,1.22558
3.42,0.781985,1.95085,2.1833,1.44408,2.70101,1.22605
3.43,0.781295,1.95323,2.17549,1.43679,2.69274,1.22657
3.44,0.780675,1.95553,2.16768,1.42952,2.68446,1.22704
3.45,0.779992,1.95798,2.15988,1.42228,2.6762,1.22757
3.46,0.779306,1.96036,2.15208,1.41505,2.66793,1.22804
3.47,0.778746,1.96282,2.14429,1.40784,2.65968,1.22857
3.48,0.778061,1.96522,2.13652,1.40064,2.65143,1.22904
3.49,0.777327,1.96771,2.12874,1.39345,2.6432,1.22956
3.5,0.776677,1.97017,2.12097,1.3863,2.63497,1.23005
3.51,0.775986,1.97262,2.11321,1.3791,2.62674,1.23056
3.52,0.775284,1.97496,2.10546,1.37187,2.61852,1.23104
3.53,0.774528,1.9774,2.09771,1.36469,2.61031,1.23155
3.54,0.773738,1.97988,2.08997,1.35754,2.6021,1.23204
3.55,0.773015,1.98236,2.08224,1.35041,2.59391,1.23253
3.56,0.772243,1.98485,2.07452,1.34328,2.58573,1.23303
3.57,0.771398,1.98733,2.0668,1.33617,2.57756,1.23352
3.58,0.770669,1.98986,2.05909,1.32907,2.56939,1.23403
3.59,0.769934,1.99235,2.05139,1.32197,2.56123,1.23451
3.6,0.769171,1.99481,2.0437,1.31484,2.55307,1.23501
3.61,0.768372,1.9972,2.03601,1.30771,2.54492,1.23548
3.62,0.767637,1.99969,2.02834,1.30061,2.53678,1.23597
3.63,0.766893,2.00218,2.02067,1.29354,2.52864,1.23644
3.64,0.766158,2.00469,2.013,1.28647,2.52051,1.23693
3.65,0.765306,2.00722,2.00535,1.27943,2.51239,1.23741
3.66,0.764561,2.00977,1.9977,1.2724,2.50429,1.23791
3.67,0.763745,2.01237,1.99006,1.2654,2.49618,1.23839
3.68,0.762835,2.01497,1.98243,1.25841,2.48809,1.23888
3.69,0.762006,2.0175,1.97481,1.25137,2.48,1.23938
3.7,0.761163,2.01999,1.96719,1.24432,2.47193,1.23987
3.71,0.760368,2.02258,1.95959,1.23734,2.46386,1.24037
3.72,0.759474,2.0252,1.95199,1.23039,2.45581,1.24087
3.73,0.758641,2.02785,1.94441,1.22345,2.44777,1.24137
3.74,0.757782,2.03052,1.93682,1.21652,2.43973,1.24187
