time,velocity,ratio,centerX,Xmax,Xmin,Ymax
0,0,1,7.25,6.25,8.25,1
0.01,0.0196815,1,7.2499,6.2499,8.2499,1
0.02,0.0389739,0.999999,7.24961,6.24961,8.24961,0.999999
0.03,0.0578204,1,7.24913,6.24913,8.24912,0.999998
0.04,0.0763475,1.00001,7.24846,6.24847,8.24845,1
0.05,0.0944822,1.00003,7.24761,6.24763,8.24759,1.00001
0.06,0.112229,1.00005,7.24658,6.24662,8.24654,1.00001
0.07,0.129659,1.00007,7.24537,6.24543,8.24531,1.00001
0.08,0.146759,1.00009,7.24399,6.24406,8.24392,1.00002
0.09,0.163558,1.00011,7.24244,6.24254,8.24234,1.00001
0.1,0.180068,1.00015,7.24073,6.24085,8.24061,1.00003
0.11,0.196254,1.00021,7.23885,6.239,8.2387,1.00005
0.12,0.212224,1.00027,7.23681,6.23701,8.23662,1.00007
0.13,0.227921,1.0003,7.23461,6.23484,8.23442,1.00009
0.14,0.243286,1.00033,7.23225,6.2325,8.23206,1.00011
0.15,0.25839,1.00039,7.22975,6.23003,8.22952,1.00013
0.16,0.273199,1.00045,7.22709,6.22742,8.2268,1.00015
0.17,0.287791,1.00056,7.22429,6.22467,8.22392,1.00019
0.18,0.30216,1.00067,7.22134,6.22179,8.22089,1.00022
0.19,0.316273,1.00078,7.21825,6.21877,8.21771,1.00025
0.2,0.33015,1.00084,7.21502,6.21559,8.21444,1.00027
0.21,0.343736,1.00092,7.21165,6.21228,8.21102,1.00029
0.22,0.357137,1.00105,7.20815,6.20886,8.20743,1.00034
0.23,0.370285,1.0012,7.20451,6.20532,8.20369,1.00039
0.24,0.383228,1.00134,7.20074,6.20166,8.19981,1.00042
0.25,0.395931,1.00143,7.19685,6.19784,8.19587,1.00044
0.26,0.408441,1.00154,7.19283,6.19387,8.19179,1.0005
0.27,0.420797,1.00167,7.18868,6.18978,8.18756,1.00055
0.28,0.432877,1.00181,7.18442,6.1856,8.18317,1.00059
0.29,0.444762,1.0019,7.18003,6.18131,8.17872,1.0006
0.3,0.45653,1.00202,7.17553,6.17687,8.17417,1.00067
0.31,0.468104,1.00215,7.1709,6.17232,8.16947,1.00072
0.32,0.479309,1.00227,7.16617,6.16767,8.16463,1.00074
0.33,0.490502,1.00238,7.16132,6.1629,8.15973,1.00079
0.34,0.501592,1.00251,7.15636,6.15803,8.15469,1.00084
0.35,0.512473,1.00262,7.15129,6.15303,8.14952,1.00086
0.36,0.523216,1.00271,7.14612,6.14793,8.14429,1.00089
0.37,0.533781,1.00283,7.14083,6.14272,8.13896,1.00094
0.38,0.544136,1.00295,7.13544,6.13743,8.13346,1.00096
0.39,0.554411,1.00305,7.12995,6.13201,8.12791,1.00099
0.4,0.564541,1.00314,7.12436,6.12647,8.12227,1.00104
0.41,0.574501,1.00322,7.11867,6.12083,8.11649,1.00105
0.42,0.58439,1.00331,7.11287,6.11511,8.11068,1.00109
0.43,0.594053,1.00338,7.10698,6.10926,8.10476,1.00113
0.44,0.60364,1.00347,7.10099,6.10334,8.09868,1.00113
0.45,0.613086,1.00357,7.09491,6.0973,8.09255,1.00119
0.46,0.622368,1.00364,7.08873,6.09116,8.08631,1.00121
0.47,0.631496,1.00374,7.08247,6.08495,8.07995,1.00124
0.48,0.64051,1.00383,7.07611,6.07865,8.07356,1.00127
0.49,0.649253,1.0039,7.06966,6.07226,8.06703,1.00128
0.5,0.658017,1.00402,7.06312,6.0658,8.06045,1.00133
0.51,0.666651,1.00409,7.0565,6.05924,8.05377,1.00135
0.52,0.675019,1.0042,7.04979,6.05259,8.04699,1.00139
0.53,0.683359,1.00429,7.043,6.04587,8.04016,1.00142
0.54,0.691672,1.0044,7.03613,6.03906,8.03318,1.00145
0.55,0.69993,1.0045,7.02917,6.03216,8.02618,1.00149
0.56,0.708064,1.00459,7.02213,6.02518,8.01905,1.00151
0.57,0.716048,1.0047,7.01501,6.01813,8.01189,1.00157
0.58,0.723827,1.00478,7.00781,6.01101,8.00462,1.00157
0.59,0.731762,1.00493,7.00054,6.0038,7.99725,1.00164
0.6,0.739453,1.00501,6.99318,5.99652,7.98983,1.00165
0.61,0.746962,1.00515,6.98575,5.98918,7.98234,1.00171
0.62,0.754363,1.00523,6.97825,5.98177,7.97479,1.00173
0.63,0.761813,1.00539,6.97066,5.97427,7.9671,1.00178
0.64,0.769117,1.00548,6.96301,5.96669,7.95938,1.0018
0.65,0.776269,1.00562,6.95528,5.95903,7.95155,1.00185
0.66,0.783376,1.0057,6.94749,5.95131,7.94371,1.00188
0.67,0.790372,1.00584,6.93962,5.94352,7.93575,1.00193
0.68,0.797215,1.00592,6.93168,5.93564,7.92776,1.00196
0.69,0.804,1.00605,6.92368,5.92772,7.91969,1.00201
0.7,0.810688,1.00612,6.9156,5.91971,7.91158,1.00202
0.71,0.817143,1.00625,6.90747,5.91165,7.90334,1.00208
0.72,0.823653,1.00632,6.89926,5.9035,7.89509,1.00209
0.73,0.830133,1.00646,6.89099,5.8953,7.88672,1.00215
0.74,0.836443,1.00653,6.88266,5.88705,7.87836,1.00215
0.75,0.842753,1.00668,6.87427,5.87873,7.86985,1.00221
0.76,0.848984,1.00673,6.86581,5.87034,7.86138,1.00222
0.77,0.855131,1.00684,6.85729,5.86189,7.8528,1.00227
0.78,0.861199,1.00692,6.84871,5.85337,7.84418,1.00229
0.79,0.867186,1.00702,6.84007,5.84479,7.83546,1.00232
0.8,0.873102,1.00709,6.83136,5.83612,7.8267,1.00235
0.81,0.878915,1.00717,6.8226,5.82743,7.81789,1.00237
0.82,0.884677,1.00727,6.81379,5.81866,7.809,1.00241
0.83,0.890369,1.00731,6.80491,5.80984,7.80011,1.00241
0.84,0.896147,1.00741,6.79598,5.80095,7.79113,1.00246
0.85,0.901676,1.00745,6.78699,5.79201,7.78213,1.00247
0.86,0.907224,1.00754,6.77795,5.78301,7.77301,1.00251
0.87,0.912697,1.00761,6.76885,5.77396,7.76388,1.00253
0.88,0.918093,1.00768,6.7597,5.76487,7.75467,1.00254
0.89,0.923455,1.00781,6.75049,5.75572,7.74537,1.00259
0.9,0.928516,1.00785,6.74123,5.74653,7.73608,1.00259
0.91,0.933669,1.00796,6.73192,5.73728,7.72672,1.00264
0.92,0.938816,1.00803,6.72256,5.72798,7.71732,1.00266
0.93,0.943811,1.00811,6.71314,5.71861,7.70783,1.00267
0.94,0.948827,1.00819,6.70368,5.70918,7.69832,1.00272
0.95,0.953732,1.00824,6.69417,5.69972,7.68877,1.00272
0.96,0.958648,1.00836,6.68461,5.69022,7.67912,1.00277
0.97,0.963546,1.00842,6.675,5.68066,7.66951,1.0028
0.98,0.968327,1.00849,6.66534,5.67106,7.6598,1.00281
0.99,0.973096,1.0086,6.65563,5.6614,7.65002,1.00286
1,0.977791,1.00865,6.64588,5.65169,7.64024,1.00287
1.01,0.982375,1.00874,6.63608,5.64195,7.63036,1.0029
1.02,0.986933,1.00884,6.62623,5.63216,7.62046,1.00294
1.03,0.991343,1.00888,6.61634,5.62232,7.61053,1.00294
1.04,0.995798,1.00899,6.6064,5.61245,7.60055,1.00299
1.05,1.00023,1.00906,6.59642,5.60253,7.59054,1.00301
1.06,1.00456,1.00912,6.5864,5.59255,7.58044,1.00301
1.07,1.00881,1.00922,6.57633,5.58252,7.57032,1.00306
1.08,1.01306,1.00928,6.56623,5.57247,7.5602,1.00308
1.09,1.01718,1.00936,6.55607,5.56237,7.54997,1.00309
1.1,1.02131,1.00944,6.54588,5.55223,7.53974,1.00314
1.11,1.02562,1.00949,6.53565,5.54204,7.52949,1.00316
1.12,1.02977,1.00957,6.52537,5.53181,7.51913,1.00317
1.13,1.03392,1.00964,6.51505,5.52151,7.50878,1.00321
1.14,1.03807,1.00968,6.50469,5.51119,7.4984,1.00322
1.15,1.04196,1.00978,6.49429,5.50083,7.48789,1.00324
1.16,1.04563,1.00985,6.48386,5.49046,7.47745,1.00328
1.17,1.04943,1.00991,6.47338,5.48005,7.46695,1.00329
1.18,1.05315,1.00999,6.46287,5.46959,7.45635,1.00331
1.19,1.05687,1.01006,6.45232,5.45908,7.44577,1.00335
1.2,1.06053,1.01011,6.44173,5.44854,7.43517,1.00336
1.21,1.06416,1.01018,6.43111,5.43797,7.42448,1.00337
1.22,1.0679,1.01026,6.42045,5.42736,7.41381,1.00341
1.23,1.07143,1.01031,6.40975,5.41672,7.4031,1.00343
1.24,1.07492,1.01037,6.39902,5.40603,7.3923,1.00343
1.25,1.07852,1.01046,6.38825,5.3953,7.3815,1.00348
1.26,1.08188,1.01051,6.37745,5.38455,7.37069,1.0035
1.27,1.08523,1.01055,6.36662,5.37376,7.35981,1.0035
1.28,1.0886,1.01063,6.35575,5.36294,7.34891,1.00354
1.29,1.09197,1.01069,6.34485,5.35209,7.33798,1.00356
1.3,1.09516,1.01076,6.33391,5.3412,7.32697,1.00357
1.31,1.09838,1.01083,6.32294,5.33026,7.31593,1.00359
1.32,1.10163,1.0109,6.31194,5.3193,7.3049,1.00362
1.33,1.10487,1.01094,6.30091,5.3083,7.29385,1.00363
1.34,1.10799,1.01099,6.28985,5.29728,7.28272,1.00363
1.35,1.11126,1.01106,6.27875,5.28621,7.2716,1.00368
1.36,1.11438,1.0111,6.26762,5.27511,7.26046,1.0037
1.37,1.11748,1.01115,6.25647,5.26399,7.24925,1.0037
1.38,1.12048,1.01123,6.24528,5.25283,7.238,1.00373
1.39,1.12336,1.01127,6.23406,5.24166,7.22681,1.00376
1.4,1.12633,1.01133,6.22281,5.23046,7.21552,1.00377
1.41,1.12929,1.01138,6.21153,5.21922,7.20417,1.00377
1.42,1.13215,1.01145,6.20022,5.20794,7.19284,1.00381
1.43,1.13512,1.01149,6.18889,5.19665,7.18149,1.00383
1.44,1.13796,1.01153,6.17752,5.18532,7.17009,1.00383
1.45,1.14071,1.01159,6.16613,5.17396,7.15865,1.00385
1.46,1.14357,1.01166,6.15471,5.16259,7.14722,1.00388
1.47,1.14636,1.01171,6.14326,5.15118,7.13574,1.0039
1.48,1.14917,1.01175,6.13178,5.13975,7.12422,1.0039
1.49,1.15185,1.01181,6.12028,5.12828,7.11268,1.00392
1.5,1.1545,1.01185,6.10875,5.1168,7.10119,1.00395
1.51,1.15714,1.0119,6.09719,5.10527,7.08958,1.00396
1.52,1.15972,1.01195,6.0856,5.09371,7.07793,1.00396
1.53,1.1624,1.01201,6.07399,5.08211,7.06628,1.00399
1.54,1.16495,1.01205,6.06236,5.07049,7.05462,1.00401
1.55,1.16746,1.01208,6.0507,5.05884,7.04293,1.00402
1.56,1.17006,1.0121,6.03901,5.04717,7.03119,1.00402
1.57,1.17267,1.01215,6.02729,5.03546,7.01945,1.00405
1.58,1.17522,1.01218,6.01555,5.02374,7.00771,1.00407
1.59,1.17778,1.01223,6.00379,5.01201,6.99589,1.00408
1.6,1.18017,1.01226,5.992,5.00025,6.98407,1.00407
1.61,1.18223,1.01232,5.98019,4.9885,6.97226,1.0041
1.62,1.18464,1.01238,5.96836,4.97672,6.96041,1.00413
1.63,1.18702,1.01243,5.9565,4.9649,6.94851,1.00414
1.64,1.18928,1.01246,5.94462,4.95305,6.93659,1.00413
1.65,1.19154,1.01251,5.93271,4.94117,6.92466,1.00416
1.66,1.19377,1.01255,5.92079,4.92929,6.91276,1.00418
1.67,1.1959,1.01261,5.90884,4.91738,6.90078,1.0042
1.68,1.19805,1.01266,5.89687,4.90545,6.88877,1.00421
1.69,1.2001,1.01271,5.88488,4.8935,6.87675,1.00423
1.7,1.20222,1.01278,5.87286,4.88155,6.86472,1.00426
1.71,1.20429,1.01282,5.86083,4.86956,6.8527,1.00428
1.72,1.20641,1.01288,5.84878,4.85755,6.8406,1.00429
1.73,1.20841,1.01293,5.83671,4.84551,6.82845,1.00429
1.74,1.21049,1.013,5.82461,4.83344,6.81632,1.00432
1.75,1.21254,1.01305,5.8125,4.82135,6.80416,1.00434
1.76,1.21459,1.01309,5.80036,4.80923,6.79198,1.00435
1.77,1.21667,1.01312,5.7882,4.79708,6.77977,1.00435
1.78,1.21867,1.01316,5.77603,4.78491,6.76757,1.00437
1.79,1.2207,1.01319,5.76383,4.77274,6.75537,1.0044
1.8,1.22272,1.01324,5.75161,4.76054,6.74312,1.00441
1.81,1.22453,1.01325,5.73938,4.74832,6.73088,1.00441
1.82,1.2264,1.01327,5.72712,4.73611,6.71861,1.00441
1.83,1.22829,1.01333,5.71485,4.72388,6.70633,1.00444
1.84,1.23017,1.01336,5.70256,4.71161,6.69404,1.00446
1.85,1.23194,1.0134,5.69025,4.69933,6.68169,1.00446
1.86,1.23376,1.01341,5.67792,4.68701,6.66935,1.00446
1.87,1.2355,1.01343,5.66557,4.6747,6.65699,1.00446
1.88,1.2373,1.01348,5.65321,4.66237,6.64463,1.00449
1.89,1.23922,1.01351,5.64083,4.65001,6.63224,1.00451
1.9,1.24093,1.01355,5.62843,4.63764,6.61981,1.00451
1.91,1.24275,1.01356,5.61601,4.62525,6.60739,1.00451
1.92,1.24448,1.01359,5.60357,4.61285,6.59496,1.00452
1.93,1.24612,1.01362,5.59112,4.60041,6.5825,1.00454
1.94,1.24784,1.01366,5.57865,4.58794,6.56999,1.00456
1.95,1.24961,1.01369,5.56616,4.57545,6.55744,1.00456
1.96,1.25138,1.01369,5.55366,4.56292,6.5449,1.00455
1.97,1.25305,1.0137,5.54114,4.55038,6.53236,1.00456
1.98,1.25475,1.01373,5.5286,4.53785,6.51981,1.00458
1.99,1.25651,1.01374,5.51604,4.52528,6.50724,1.0046
2,1.25838,1.01377,5.50347,4.51272,6.49462,1.0046
2.01,1.26009,1.01376,5.49087,4.50011,6.48203,1.00459
2.02,1.26144,1.01379,5.47827,4.48756,6.46943,1.0046
2.03,1.26289,1.01383,5.46565,4.47499,6.45681,1.00462
2.04,1.26442,1.01388,5.45301,4.46239,6.44416,1.00464
2.05,1.26576,1.01392,5.44036,4.44977,6.43147,1.00464
2.06,1.26714,1.01394,5.42769,4.43714,6.41879,1.00464
2.07,1.26851,1.01397,5.41502,4.4245,6.4061,1.00464
2.08,1.26997,1.01403,5.40232,4.41186,6.39341,1.00467
2.09,1.27132,1.01408,5.38962,4.39919,6.38069,1.0047
2.1,1.27265,1.01415,5.3769,4.38653,6.36793,1.00472
2.11,1.27396,1.01418,5.36416,4.37383,6.3552,1.00473
2.12,1.27519,1.01422,5.35142,4.36114,6.34243,1.00473
2.13,1.27649,1.01428,5.33866,4.34842,6.32965,1.00476
2.14,1.27779,1.01433,5.32589,4.33566,6.31685,1.00478
2.15,1.27914,1.01438,5.31311,4.32289,6.304,1.0048
2.16,1.28044,1.01442,5.30031,4.3101,6.29114,1.00481
2.17,1.28177,1.01445,5.2875,4.2973,6.27827,1.00481
2.18,1.28309,1.01448,5.27467,4.28448,6.26542,1.00481
2.19,1.28444,1.01451,5.26183,4.27165,6.25258,1.00483
2.2,1.28583,1.01455,5.24898,4.25882,6.2397,1.00485
2.21,1.28686,1.01456,5.23612,4.24597,6.22684,1.00486
2.22,1.28812,1.01459,5.22325,4.23313,6.21395,1.00486
2.23,1.28927,1.0146,5.21036,4.22027,6.20105,1.00485
2.24,1.29046,1.01461,5.19746,4.20739,6.18817,1.00486
2.25,1.29167,1.01463,5.18455,4.19449,6.17526,1.00488
2.26,1.29297,1.01464,5.17163,4.18158,6.16235,1.00489
2.27,1.29411,1.01467,5.15869,4.16866,6.14939,1.00489
2.28,1.29529,1.01468,5.14574,4.15573,6.13644,1.00489
2.29,1.29641,1.01467,5.13279,4.14279,6.1235,1.00488
2.3,1.2975,1.01468,5.11982,4.12984,6.11054,1.00489
2.31,1.29861,1.01469,5.10684,4.11688,6.0976,1.00491
2.32,1.29978,1.01472,5.09384,4.10391,6.08459,1.00492
2.33,1.30105,1.01474,5.08084,4.0909,6.07155,1.00492
2.34,1.30216,1.01473,5.06782,4.07786,6.0585,1.00491
2.35,1.30325,1.01472,5.0548,4.06482,6.04546,1.0049
2.36,1.30429,1.01474,5.04176,4.05178,6.03241,1.00491
2.37,1.30552,1.01476,5.02871,4.03873,6.01934,1.00493
2.38,1.30681,1.01477,5.01565,4.02564,6.00626,1.00494
2.39,1.30793,1.01479,5.00258,4.01255,5.99314,1.00494
2.4,1.30892,1.01477,4.98949,3.99946,5.98007,1.00493
2.41,1.30987,1.01478,4.9764,3.98641,5.96698,1.00492
2.42,1.31084,1.01481,4.96329,3.97334,5.95388,1.00494
2.43,1.31177,1.01485,4.95018,3.96026,5.94077,1.00496
2.44,1.31275,1.01489,4.93706,3.94716,5.92762,1.00497
2.45,1.31365,1.01492,4.92393,3.93406,5.91447,1.00498
2.46,1.31458,1.01495,4.91079,3.92096,5.9013,1.00498
2.47,1.31539,1.01498,4.89764,3.90784,5.88814,1.00498
2.48,1.3163,1.01501,4.88448,3.89472,5.87499,1.005
2.49,1.31712,1.01507,4.87131,3.88159,5.86181,1.00503
2.5,1.31797,1.01511,4.85814,3.86846,5.84864,1.00505
2.51,1.31874,1.01517,4.84495,3.85532,5.83542,1.00507
2.52,1.31959,1.01521,4.83176,3.84216,5.8222,1.00508
2.53,1.32048,1.01523,4.81856,3.82896,5.80896,1.00508
2.54,1.3213,1.01524,4.80535,3.81576,5.79572,1.00507
2.55,1.32219,1.01528,4.79213,3.80255,5.78247,1.00509
2.56,1.32319,1.01532,4.77891,3.78932,5.76921,1.00511
2.57,1.32405,1.01536,4.76567,3.77609,5.75593,1.00512
2.58,1.32493,1.01539,4.75243,3.76286,5.74264,1.00513
2.59,1.32566,1.01538,4.73917,3.74961,5.7294,1.00512
2.6,1.32639,1.01539,4.72591,3.73638,5.71614,1.00511
2.61,1.32712,1.01539,4.71264,3.72313,5.70289,1.00512
2.62,1.32792,1.0154,4.69937,3.70986,5.68963,1.00513
2.63,1.32879,1.01542,4.68609,3.69658,5.67635,1.00514
2.64,1.32957,1.01542,4.67279,3.68329,5.66306,1.00515
2.65,1.33035,1.01543,4.6595,3.67,5.64975,1.00515
2.66,1.33113,1.01542,4.64619,3.6567,5.63645,1.00514
2.67,1.33183,1.01541,4.63287,3.64339,5.62315,1.00513
2.68,1.33258,1.0154,4.61955,3.63008,5.60986,1.00514
2.69,1.33326,1.0154,4.60622,3.61676,5.59657,1.00515
2.7,1.33406,1.01542,4.59289,3.60344,5.58322,1.00515
2.71,1.33485,1.01543,4.57954,3.59009,5.56986,1.00515
2.72,1.33563,1.01543,4.56619,3.57672,5.55648,1.00515
2.73,1.33635,1.0154,4.55283,3.56333,5.54311,1.00513
2.74,1.33718,1.01539,4.53946,3.54995,5.52973,1.00512
2.75,1.338,1.0154,4.52609,3.53656,5.51635,1.00513
2.76,1.33876,1.01541,4.5127,3.52317,5.50296,1.00515
2.77,1.33954,1.01544,4.49931,3.50978,5.48953,1.00515
2.78,1.34005,1.01544,4.48591,3.49639,5.47614,1.00516
2.79,1.34058,1.01547,4.47251,3.48302,5.46272,1.00516
2.8,1.34135,1.01548,4.4591,3.46964,5.4493,1.00515
2.81,1.34189,1.01548,4.44568,3.45625,5.43589,1.00515
2.82,1.34249,1.01551,4.43226,3.44285,5.42247,1.00517
2.83,1.34301,1.01555,4.41883,3.42945,5.40903,1.00519
2.84,1.34359,1.01561,4.4054,3.41605,5.39557,1.00521
2.85,1.34417,1.01565,4.39196,3.40264,5.3821,1.00523
2.86,1.34465,1.0157,4.37852,3.38923,5.36863,1.00524
2.87,1.34518,1.0157,4.36507,3.3758,5.3552,1.00524
2.88,1.3457,1.01573,4.35162,3.36241,5.34175,1.00524
2.89,1.34619,1.01577,4.33816,3.34898,5.32827,1.00526
2.9,1.34675,1.01582,4.32469,3.33553,5.31478,1.00528
2.91,1.3473,1.01587,4.31122,3.32207,5.30125,1.00529
2.92,1.34786,1.0159,4.29775,3.3086,5.28773,1.0053
2.93,1.34847,1.01593,4.28426,3.29513,5.2742,1.0053
2.94,1.34904,1.01594,4.27078,3.28164,5.26069,1.0053
2.95,1.34974,1.01594,4.25728,3.26815,5.24719,1.0053
2.96,1.35024,1.01594,4.24378,3.25465,5.2337,1.0053
2.97,1.35072,1.01595,4.23028,3.24116,5.22021,1.00531
2.98,1.35057,1.01597,4.21677,3.22767,5.20671,1.00532
2.99,1.35115,1.01599,4.20326,3.21417,5.19319,1.00533
3,1.35185,1.016,4.18974,3.20066,5.17967,1.00533
3.01,1.35244,1.01597,4.17622,3.18713,5.16616,1.00533
3.02,1.35299,1.01597,4.1627,3.17361,5.15264,1.00532
3.03,1.35354,1.01595,4.14916,3.16008,5.13913,1.0053
3.04,1.35407,1.01595,4.13562,3.14654,5.12561,1.00532
3.05,1.35464,1.01596,4.12208,3.13301,5.11207,1.00533
3.06,1.35517,1.01595,4.10853,3.11945,5.09855,1.00533
3.07,1.35566,1.01596,4.09498,3.10592,5.08498,1.00533
3.08,1.35625,1.01596,4.08142,3.09235,5.07142,1.00532
3.09,1.35679,1.01594,4.06785,3.07876,5.05785,1.00531
3.1,1.35724,1.01591,4.05428,3.06517,5.04428,1.0053
3.11,1.35782,1.0159,4.04071,3.05157,5.0307,1.00529
3.12,1.3584,1.01591,4.02713,3.03798,5.01711,1.00531
3.13,1.3591,1.01591,4.01354,3.02437,5.00351,1.00531
3.14,1.35958,1.01593,3.99994,3.01077,4.98988,1.00532
3.15,1.35995,1.01591,3.98635,2.99716,4.9763,1.00532
3.16,1.3604,1.01593,3.97274,2.9836,4.96269,1.00531
3.17,1.36079,1.01594,3.95914,2.97002,4.94909,1.00531
3.18,1.36116,1.01594,3.94553,2.95643,4.93549,1.0053
3.19,1.36151,1.01596,3.93192,2.94283,4.92188,1.00531
3.2,1.3618,1.01599,3.9183,2.92924,4.90826,1.00533
3.21,1.36216,1.01604,3.90468,2.91565,4.89461,1.00535
3.22,1.36254,1.01608,3.89106,2.90206,4.88096,1.00537
3.23,1.36284,1.01613,3.87743,2.88846,4.86731,1.00538
3.24,1.36314,1.01613,3.8638,2.87485,4.8537,1.00538
3.25,1.36339,1.01616,3.85017,2.86127,4.84006,1.00539
3.26,1.36364,1.01618,3.83653,2.84766,4.82641,1.00538
3.27,1.36396,1.01623,3.82289,2.83404,4.81275,1.00541
3.28,1.36431,1.01627,3.80925,2.82041,4.79907,1.00542
3.29,1.36476,1.0163,3.79561,2.80676,4.78538,1.00544
3.3,1.36515,1.01634,3.78196,2.79312,4.77168,1.00544
3.31,1.36556,1.01636,3.7683,2.77947,4.75799,1.00545
3.32,1.36598,1.01637,3.75465,2.76581,4.74431,1.00545
3.33,1.36626,1.01635,3.74098,2.75213,4.73066,1.00544
3.34,1.36642,1.01635,3.72732,2.7385,4.71701,1.00543
3.35,1.36671,1.01636,3.71365,2.72485,4.70336,1.00545
3.36,1.36704,1.01637,3.69999,2.71118,4.68971,1.00546
3.37,1.36735,1.01638,3.68631,2.69751,4.67603,1.00546
3.38,1.36775,1.01637,3.67264,2.68383,4.66237,1.00546
3.39,1.368,1.01637,3.65896,2.67016,4.64869,1.00546
3.4,1.36836,1.01636,3.64528,2.65648,4.63502,1.00545
3.41,1.36869,1.01634,3.63159,2.64279,4.62135,1.00544
3.42,1.36897,1.0163,3.6179,2.6291,4.6077,1.00543
3.43,1.36923,1.0163,3.60421,2.61543,4.59404,1.00543
3.44,1.36964,1.0163,3.59052,2.60172,4.58036,1.00544
3.45,1.37012,1.01629,3.57682,2.588,4.56665,1.00545
3.46,1.37019,1.01629,3.56312,2.57427,4.55293,1.00544
3.47,1.37044,1.01628,3.54942,2.56056,4.53923,1.00544
3.48,1.37088,1.01628,3.53571,2.54685,4.5255,1.00543
3.49,1.37119,1.01627,3.522,2.53313,4.51178,1.00542
3.5,1.37157,1.01625,3.50829,2.51941,4.49807,1.00541
3.51,1.37183,1.01626,3.49457,2.50569,4.48434,1.00541
3.52,1.37203,1.01626,3.48085,2.49197,4.47063,1.00542
3.53,1.37223,1.0163,3.46713,2.47828,4.45689,1.00543
3.54,1.37219,1.01633,3.45341,2.46458,4.44316,1.00544
3.55,1.37227,1.01636,3.43969,2.45088,4.42942,1.00545
3.56,1.37237,1.01636,3.42596,2.43716,4.4157,1.00545
3.57,1.37241,1.01639,3.41224,2.42347,4.40196,1.00546
3.58,1.37255,1.0164,3.39851,2.40978,4.38824,1.00546
3.59,1.37262,1.01643,3.38479,2.39608,4.37451,1.00547
3.6,1.3727,1.01647,3.37106,2.38238,4.36078,1.00549
3.61,1.37275,1.01651,3.35733,2.36868,4.34704,1.00551
3.62,1.37279,1.01657,3.34361,2.355,4.33328,1.00553
3.63,1.37288,1.01661,3.32988,2.34129,4.31952,1.00554
3.64,1.37304,1.01664,3.31615,2.32758,4.30575,1.00554
3.65,1.3723,1.01664,3.30242,2.31385,4.29201,1.00554
3.66,1.37237,1.01666,3.2887,2.30014,4.27826,1.00553
3.67,1.37236,1.01667,3.27497,2.28642,4.26453,1.00554
3.68,1.37253,1.01669,3.26125,2.2727,4.25079,1.00556
3.69,1.37261,1.01672,3.24752,2.25898,4.23704,1.00557
3.7,1.37257,1.01672,3.2338,2.24525,4.22332,1.00557
3.71,1.37258,1.01674,3.22007,2.23155,4.20958,1.00557
3.72,1.37265,1.01674,3.20635,2.21783,4.19586,1.00557
3.73,1.37273,1.01672,3.19262,2.2041,4.18215,1.00556
3.74,1.37282,1.01669,3.17889,2.19036,4.16845,1.00555
3.75,1.37282,1.01667,3.16516,2.17664,4.15474,1.00554
3.76,1.37292,1.01667,3.15144,2.16291,4.14103,1.00555
3.77,1.37306,1.01667,3.13771,2.14917,4.12731,1.00556
3.78,1.37313,1.01667,3.12397,2.13544,4.11358,1.00556
3.79,1.37326,1.01664,3.11024,2.1217,4.09989,1.00555
