time,velocity,ratio,centerX,Xmax,Xmin,Ymax
0,0,1,1.75,0.75,2.75,1
0.01,0.0184048,0.999997,1.74991,0.749909,2.74991,1
0.02,0.0364406,1.00003,1.74964,0.749669,2.74962,1.00001
0.03,0.0540805,1.0001,1.74918,0.74928,2.74913,1.00003
0.04,0.0712832,1.00017,1.74856,0.748705,2.74846,1.00005
0.05,0.0881071,1.00023,1.74776,0.747942,2.74763,1.00007
0.06,0.104516,1.00029,1.7468,0.747024,2.74662,1.00009
0.07,0.120576,1.00036,1.74568,0.745942,2.74545,1.00011
0.08,0.136341,1.0004,1.74439,0.744694,2.74412,1.00012
0.09,0.151356,1.00044,1.74296,0.743297,2.74265,1.00011
0.1,0.166552,1.00047,1.74137,0.741745,2.74104,1.00012
0.11,0.181582,1.00048,1.73963,0.740029,2.73931,1.00013
0.12,0.196517,1.00043,1.73774,0.738086,2.73751,1.00014
0.13,0.211089,1.0004,1.7357,0.736012,2.73553,1.00016
0.14,0.225246,1.0004,1.73352,0.733829,2.73335,1.00016
0.15,0.239134,1.0004,1.7312,0.731519,2.731,1.00014
0.16,0.252819,1.00041,1.72874,0.72911,2.72847,1.0001
0.17,0.266087,1.00044,1.72615,0.726536,2.72584,1.00009
0.18,0.279419,1.00046,1.72342,0.723811,2.72309,1.0001
0.19,0.292478,1.00041,1.72056,0.720885,2.72033,1.00013
0.2,0.3052,1.00039,1.71758,0.717844,2.71741,1.00017
0.21,0.317767,1.00046,1.71446,0.714785,2.71422,1.00018
0.22,0.329823,1.00053,1.71123,0.711627,2.7109,1.00016
0.23,0.341968,1.00064,1.70787,0.708394,2.70744,1.00016
0.24,0.353525,1.00071,1.70439,0.705019,2.70393,1.00017
0.25,0.365061,1.00073,1.7008,0.701403,2.70039,1.00022
0.26,0.376059,1.00076,1.69709,0.697672,2.69665,1.00025
0.27,0.387105,1.00079,1.69328,0.693826,2.69281,1.00028
0.28,0.397495,1.00085,1.68936,0.689975,2.68882,1.00028
0.29,0.407973,1.00091,1.68533,0.686044,2.68479,1.00028
0.3,0.417992,1.00095,1.6812,0.681963,2.6806,1.00027
0.31,0.428244,1.00097,1.67697,0.677731,2.67632,1.00027
0.32,0.438367,1.00093,1.67264,0.673353,2.67206,1.00028
0.33,0.447885,1.00089,1.66821,0.668904,2.66773,1.0003
0.34,0.457081,1.00091,1.66369,0.664418,2.66318,1.00029
0.35,0.466762,1.00096,1.65907,0.659813,2.6585,1.0003
0.36,0.47606,1.00094,1.65436,0.655101,2.65379,1.00028
0.37,0.485133,1.00099,1.64955,0.650351,2.64894,1.00028
0.38,0.494216,1.00106,1.64466,0.645499,2.64399,1.00031
0.39,0.503031,1.00107,1.63967,0.640516,2.63904,1.00033
0.4,0.511544,1.00104,1.6346,0.635409,2.63401,1.00034
0.41,0.519872,1.00117,1.62944,0.630322,2.62873,1.00037
0.42,0.528272,1.00125,1.6242,0.625165,2.62344,1.00038
0.43,0.536042,1.00124,1.61888,0.619884,2.61816,1.00038
0.44,0.543949,1.00135,1.61348,0.614562,2.61268,1.0004
0.45,0.550647,1.00142,1.60801,0.609137,2.60716,1.00043
0.46,0.558023,1.00138,1.60247,0.603562,2.60167,1.00043
0.47,0.565414,1.00144,1.59685,0.597958,2.596,1.00046
0.48,0.572778,1.00148,1.59116,0.592313,2.59028,1.00046
0.49,0.579779,1.00149,1.5854,0.586571,2.58451,1.00045
0.5,0.586791,1.00156,1.57957,0.580785,2.57861,1.00047
0.51,0.593584,1.00154,1.57367,0.574883,2.57275,1.00047
0.52,0.600126,1.00157,1.5677,0.568947,2.56678,1.00048
0.53,0.606722,1.00163,1.56167,0.562963,2.5607,1.0005
0.54,0.612745,1.00157,1.55557,0.556825,2.55468,1.0005
0.55,0.619204,1.00168,1.54941,0.550743,2.54843,1.00052
0.56,0.625252,1.00172,1.54319,0.544584,2.54218,1.00052
0.57,0.630976,1.00173,1.53691,0.538282,2.5359,1.00054
0.58,0.636793,1.00183,1.53057,0.532036,2.52947,1.00055
0.59,0.642207,1.0018,1.52418,0.525619,2.52314,1.00055
0.6,0.647919,1.00189,1.51773,0.519215,2.51662,1.00059
0.61,0.653012,1.00194,1.51122,0.512803,2.5101,1.00059
0.62,0.658245,1.00196,1.50467,0.506225,2.50354,1.00062
0.63,0.663167,1.00207,1.49806,0.499726,2.49682,1.00062
0.64,0.667936,1.00207,1.49141,0.493087,2.49022,1.00063
0.65,0.672647,1.00215,1.4847,0.486423,2.48345,1.00066
0.66,0.677284,1.00216,1.47795,0.479731,2.47672,1.00065
0.67,0.681714,1.0022,1.47116,0.47291,2.46991,1.0007
0.68,0.686107,1.00227,1.46432,0.466176,2.463,1.00068
0.69,0.690363,1.00228,1.45744,0.459266,2.45614,1.00071
0.7,0.694203,1.00234,1.45052,0.452428,2.44916,1.0007
0.71,0.69802,1.00236,1.44356,0.445512,2.44222,1.00071
0.72,0.701543,1.00241,1.43656,0.438517,2.43519,1.00074
0.73,0.705042,1.00242,1.42953,0.431561,2.42817,1.00072
0.74,0.70861,1.00248,1.42246,0.424489,2.42108,1.00077
0.75,0.711845,1.00252,1.41536,0.417489,2.41396,1.00075
0.76,0.714868,1.0026,1.40822,0.410373,2.40678,1.0008
0.77,0.717829,1.00265,1.40106,0.40329,2.39958,1.00079
0.78,0.720633,1.00272,1.39387,0.39612,2.39234,1.00083
0.79,0.723109,1.00278,1.38665,0.388982,2.3851,1.00083
0.8,0.725481,1.00284,1.37941,0.381795,2.37784,1.00086
0.81,0.727833,1.0029,1.37214,0.374577,2.37053,1.00087
0.82,0.729973,1.00296,1.36485,0.367375,2.36324,1.00089
0.83,0.731638,1.00304,1.35755,0.360113,2.35587,1.00091
0.84,0.733367,1.00307,1.35022,0.352876,2.34857,1.00091
0.85,0.735192,1.00315,1.34288,0.345548,2.34115,1.00095
0.86,0.736381,1.00318,1.33552,0.338284,2.33381,1.00094
0.87,0.737806,1.00328,1.32815,0.330937,2.32636,1.00098
0.88,0.738802,1.00329,1.32077,0.323648,2.319,1.00096
0.89,0.739754,1.00339,1.31338,0.316289,2.31156,1.00101
0.9,0.740281,1.00341,1.30598,0.308977,2.30416,1.001
0.91,0.740929,1.00351,1.29857,0.301624,2.29671,1.00104
0.92,0.741209,1.00355,1.29116,0.294319,2.2893,1.00104
0.93,0.741346,1.00365,1.28375,0.286967,2.28184,1.00108
0.94,0.741393,1.00371,1.27634,0.279639,2.2744,1.00108
0.95,0.741138,1.00381,1.26892,0.272308,2.26695,1.00112
0.96,0.740763,1.00389,1.26151,0.264986,2.25948,1.00112
0.97,0.740225,1.00397,1.25411,0.257677,2.25207,1.00116
0.98,0.739484,1.00405,1.24671,0.250339,2.24459,1.00117
0.99,0.738223,1.00414,1.23932,0.243075,2.23721,1.0012
1,0.736988,1.00424,1.23195,0.235777,2.22976,1.00122
1.01,0.735484,1.00432,1.22459,0.22855,2.22242,1.00124
1.02,0.733805,1.00443,1.21724,0.221282,2.215,1.00127
1.03,0.731582,1.00451,1.20991,0.214107,2.20767,1.00128
1.04,0.729413,1.00464,1.20261,0.206889,2.20028,1.00132
1.05,0.726851,1.00473,1.19533,0.199772,2.193,1.00132
1.06,0.724084,1.00487,1.18807,0.192629,2.18567,1.00138
1.07,0.720881,1.00496,1.18085,0.185563,2.17843,1.00137
1.08,0.717617,1.00512,1.17366,0.178486,2.17117,1.00144
1.09,0.713846,1.00522,1.1665,0.171509,2.16398,1.00144
1.1,0.709885,1.00539,1.15938,0.164537,2.1568,1.0015
1.11,0.70561,1.00552,1.1523,0.157643,2.14967,1.00151
1.12,0.700965,1.00569,1.14527,0.150806,2.14259,1.00156
1.13,0.696089,1.00585,1.13829,0.143987,2.13552,1.00159
1.14,0.690706,1.00601,1.13135,0.137285,2.12856,1.00162
1.15,0.684972,1.0062,1.12447,0.130586,2.12159,1.00167
1.16,0.678871,1.00636,1.11765,0.124036,2.11475,1.00169
1.17,0.672477,1.00658,1.1109,0.11749,2.1079,1.00175
1.18,0.665583,1.00677,1.10421,0.1111,2.10118,1.00177
1.19,0.658315,1.00703,1.09759,0.104766,2.09446,1.00184
1.2,0.650692,1.00726,1.09104,0.0985409,2.08785,1.00188
1.21,0.642372,1.00754,1.08458,0.0924428,2.08131,1.00193
1.22,0.633565,1.00784,1.0782,0.086417,2.07481,1.00199
1.23,0.624033,1.00812,1.07191,0.0805383,2.06847,1.00203
1.24,0.614049,1.00849,1.06572,0.0747807,2.06215,1.00212
1.25,0.603546,1.00883,1.05963,0.0691602,2.05596,1.00218
1.26,0.592144,1.00923,1.05365,0.0637003,2.04986,1.00225
1.27,0.580249,1.00967,1.04779,0.0583949,2.04385,1.00233
1.28,0.567517,1.01008,1.04205,0.053228,2.03802,1.0024
1.29,0.554052,1.01063,1.03644,0.0483216,2.03225,1.0025
1.3,0.540103,1.01117,1.03097,0.043615,2.02665,1.00259
1.31,0.524755,1.01175,1.02565,0.0391353,2.02118,1.00267
1.32,0.508701,1.01249,1.02048,0.0349771,2.01582,1.00279
1.33,0.492039,1.01324,1.01548,0.0310778,2.01066,1.0029
1.34,0.473832,1.01402,1.01065,0.0274165,2.00565,1.00298
1.35,0.454686,1.01497,1.006,0.0241635,2.00081,1.00312
1.36,0.434966,1.01593,1.00155,0.0210943,1.99614,1.00326
1.37,0.413588,1.01701,0.997309,0.0185104,1.99169,1.00337
1.38,0.390851,1.01817,0.993286,0.0162251,1.98747,1.00353
1.39,0.367661,1.01947,0.989492,0.0143047,1.98339,1.00371
1.4,0.343634,1.02075,0.985935,0.0126117,1.97956,1.00389
1.41,0.317827,1.02199,0.982625,0.0111302,1.97597,1.00403
1.42,0.291035,1.02323,0.979579,0.00981302,1.97261,1.0042
1.43,0.263232,1.02447,0.976807,0.00863451,1.96946,1.0044
1.44,0.234645,1.02552,0.974316,0.00752595,1.96671,1.00459
1.45,0.205247,1.02644,0.972115,0.00656233,1.96433,1.00477
1.46,0.175487,1.02724,0.970211,0.00559202,1.96214,1.00493
1.47,0.145864,1.02789,0.968604,0.00468335,1.96023,1.00504
1.48,0.116498,1.0278,0.967291,0.00283156,1.95869,1.00511
1.49,0.0874522,1.02697,0.96627,9.04487e-05,1.9576,1.00515
1.5,0.059357,1.02733,0.965535,7.72609e-06,1.95682,1.00514
1.51,0.0321774,1.0276,0.965078,0.000262918,1.95646,1.0051
1.52,0.00662377,1.02736,0.964884,6.04606e-08,1.95644,1.00499
1.53,-0.0178024,1.02697,0.964941,1.79235e-08,1.95682,1.0048
1.54,-0.0399115,1.0264,0.96523,-0,1.95749,1.00458
1.55,-0.0603276,1.02568,0.965732,5.39118e-09,1.95838,1.00434
1.56,-0.0783941,1.02483,0.966427,3.87346e-09,1.95953,1.00409
1.57,-0.0941472,1.02383,0.967291,6.53259e-09,1.96092,1.00383
1.58,-0.107364,1.02278,0.9683,4.07372e-09,1.96241,1.00356
1.59,-0.118176,1.02171,0.969429,4.15885e-09,1.96394,1.00329
1.6,-0.126689,1.02062,0.970654,4.10911e-09,1.96553,1.00303
1.61,-0.13292,1.01949,0.971953,4.30954e-09,1.96721,1.00278
1.62,-0.137074,1.01836,0.973303,4.35425e-09,1.96897,1.00256
1.63,-0.139448,1.01725,0.974686,4.35047e-09,1.97071,1.00236
1.64,-0.139964,1.01618,0.976084,4.55514e-09,1.97241,1.00217
1.65,-0.139077,1.01514,0.977479,4.57967e-09,1.97408,1.00199
1.66,-0.136808,1.01414,0.97886,4.82679e-09,1.9757,1.00182
1.67,-0.133201,1.01322,0.98021,4.31897e-09,1.97723,1.00168
1.68,-0.12843,1.01232,0.981518,4.66397e-09,1.9788,1.00159
1.69,-0.12252,1.01148,0.982773,-0,1.98024,1.00149
1.7,-0.115905,1.01071,0.983965,4.0417e-09,1.9816,1.00141
1.71,-0.108388,1.00997,0.985087,6.87077e-09,1.98286,1.00131
1.72,-0.100294,1.00931,0.98613,1.24219e-08,1.98399,1.00123
1.73,-0.0917609,1.00867,0.987091,2.32605e-08,1.9851,1.00116
1.74,-0.0829947,1.00812,0.987964,2.29952e-08,1.98607,1.0011
1.75,-0.0739513,1.00761,0.988749,3.4088e-08,1.98693,1.00103
1.76,-0.0646439,1.00714,0.989442,5.7639e-08,1.98775,1.00097
1.77,-0.0553925,1.00677,0.990042,1.07906e-07,1.98842,1.00094
1.78,-0.0463088,1.00659,0.99055,0.0002587,1.98896,1.00091
1.79,-0.0374504,1.00622,0.990969,1.6763e-07,1.9894,1.00089
1.8,-0.0288775,1.00605,0.9913,3.02072e-07,1.98973,1.00089
1.81,-0.0205773,1.00594,0.991547,2.89207e-07,1.98997,1.0009
1.82,-0.0125754,1.0059,0.991712,4.52806e-07,1.9901,1.00092
1.83,-0.00493666,1.00592,0.9918,4.39502e-07,1.99011,1.00094
1.84,0.0023239,1.00599,0.991812,6.78344e-07,1.99004,1.00098
