time,velocity,ratio,centerX,Xmax,Xmin,Ymax
0,0,1,1.75,0.75,2.75,1
0.01,0.0184093,1.00002,1.74991,0.74993,2.74989,1
0.02,0.0364574,1.00005,1.74963,0.749679,2.74961,1.00001
0.03,0.0540951,1.00012,1.74918,0.749288,2.74911,1.00003
0.04,0.0712886,1.00018,1.74856,0.748696,2.74846,1.00006
0.05,0.0880714,1.00023,1.74776,0.747936,2.74762,1.00008
0.06,0.104419,1.00029,1.7468,0.747012,2.74661,1.00009
0.07,0.12043,1.00033,1.74568,0.745915,2.74545,1.0001
0.08,0.136121,1.00034,1.7444,0.744646,2.74415,1.00009
0.09,0.151092,1.00034,1.74296,0.743238,2.7427,1.00008
0.1,0.166342,1.00034,1.74138,0.741659,2.74114,1.00008
0.11,0.181542,1.00028,1.73964,0.739888,2.73948,1.00008
0.12,0.196503,1.00022,1.73775,0.737935,2.73768,1.00009
0.13,0.211248,1.00021,1.73571,0.735871,2.73566,1.0001
0.14,0.225663,1.00021,1.73353,0.733694,2.73345,1.00009
0.15,0.23967,1.00026,1.7312,0.731415,2.73103,1.00007
0.16,0.253398,1.0003,1.72873,0.729009,2.72851,1.00005
0.17,0.266676,1.00031,1.72613,0.7264,2.72589,1.00006
0.18,0.280128,1.00035,1.7234,0.723669,2.72317,1.00009
0.19,0.29332,1.00033,1.72054,0.720778,2.72039,1.00014
0.2,0.306101,1.0004,1.71754,0.717839,2.71736,1.00016
0.21,0.318676,1.00048,1.71442,0.714784,2.71412,1.00015
0.22,0.330674,1.00054,1.71117,0.711631,2.71079,1.00012
0.23,0.342577,1.0006,1.7078,0.7083,2.70739,1.00014
0.24,0.354591,1.00054,1.70432,0.704743,2.70402,1.00017
0.25,0.366239,1.0005,1.70072,0.701049,2.70047,1.00021
0.26,0.377132,1.00053,1.697,0.697357,2.69666,1.00018
0.27,0.388368,1.00059,1.69317,0.693626,2.69277,1.00016
0.28,0.398781,1.00061,1.68924,0.689798,2.68884,1.00014
0.29,0.409086,1.00056,1.6852,0.685677,2.68491,1.00017
0.3,0.419438,1.00053,1.68106,0.681451,2.68076,1.00018
0.31,0.429595,1.00052,1.67682,0.677168,2.67652,1.00019
0.32,0.439915,1.0006,1.67247,0.672978,2.67212,1.00017
0.33,0.449589,1.00065,1.66802,0.668577,2.66765,1.00018
0.34,0.458924,1.0007,1.66348,0.664021,2.66299,1.00018
0.35,0.468748,1.00069,1.65884,0.65934,2.65839,1.00022
0.36,0.477832,1.00072,1.65411,0.654686,2.65375,1.00025
0.37,0.48689,1.00078,1.64929,0.64992,2.64885,1.00025
0.38,0.495808,1.00087,1.64437,0.645038,2.6438,1.00025
0.39,0.504815,1.00087,1.63937,0.640055,2.63882,1.00025
0.4,0.513271,1.00091,1.63428,0.635032,2.63375,1.00027
0.41,0.521645,1.00091,1.62911,0.62981,2.62857,1.00029
0.42,0.530112,1.00086,1.62385,0.624485,2.62333,1.00029
0.43,0.537877,1.00091,1.61851,0.619225,2.61796,1.00028
0.44,0.545038,1.00096,1.6131,0.613875,2.6125,1.00028
0.45,0.552546,1.00089,1.60761,0.608356,2.60711,1.00027
0.46,0.560068,1.0009,1.60205,0.602778,2.60151,1.00027
0.47,0.567563,1.00097,1.59641,0.59715,2.59581,1.0003
0.48,0.574928,1.00091,1.5907,0.591424,2.5902,1.0003
0.49,0.582024,1.00101,1.58491,0.585729,2.5843,1.00029
0.5,0.58913,1.00113,1.57906,0.579942,2.57834,1.00032
0.51,0.595823,1.00106,1.57313,0.573981,2.57253,1.00033
0.52,0.602524,1.00116,1.56714,0.568053,2.56646,1.00036
0.53,0.608863,1.00122,1.56109,0.562056,2.56038,1.00039
0.54,0.614985,1.00121,1.55497,0.555943,2.55426,1.00037
0.55,0.621277,1.00132,1.54879,0.54981,2.54797,1.0004
0.56,0.627446,1.0013,1.54254,0.543592,2.54179,1.0004
0.57,0.633194,1.00132,1.53624,0.537302,2.53546,1.0004
0.58,0.639193,1.00133,1.52988,0.530925,2.52909,1.00041
0.59,0.644486,1.0013,1.52346,0.524512,2.52271,1.00039
0.6,0.650203,1.00136,1.51699,0.518073,2.51617,1.00041
0.61,0.655371,1.0013,1.51046,0.511536,2.50974,1.0004
0.62,0.660691,1.00138,1.50388,0.505009,2.50307,1.00041
0.63,0.665571,1.00139,1.49725,0.498375,2.49645,1.00042
0.64,0.670455,1.0014,1.49057,0.49173,2.48978,1.00043
0.65,0.675251,1.0015,1.48385,0.485064,2.48296,1.00045
0.66,0.679809,1.00148,1.47707,0.478281,2.47622,1.00045
0.67,0.684366,1.0016,1.47025,0.47153,2.4693,1.00048
0.68,0.688668,1.00158,1.46339,0.464668,2.46249,1.00049
0.69,0.692668,1.00168,1.45648,0.457857,2.45552,1.00051
0.7,0.696725,1.00169,1.44953,0.450921,2.44858,1.00052
0.71,0.700178,1.00173,1.44255,0.443968,2.44156,1.00052
0.72,0.70398,1.00179,1.43553,0.437011,2.4345,1.00053
0.73,0.707397,1.00176,1.42847,0.429923,2.42748,1.00053
0.74,0.711022,1.00184,1.42138,0.422912,2.42033,1.00055
0.75,0.714103,1.00177,1.41425,0.415727,2.41327,1.00054
0.76,0.717229,1.00188,1.4071,0.408645,2.40602,1.00056
0.77,0.720082,1.00183,1.39991,0.401451,2.39891,1.00056
0.78,0.723087,1.00193,1.3927,0.394322,2.3916,1.00057
0.79,0.725351,1.00192,1.38546,0.387098,2.38442,1.00058
0.8,0.727866,1.002,1.37819,0.379884,2.37708,1.0006
0.81,0.730131,1.00203,1.3709,0.372645,2.3698,1.00061
0.82,0.732093,1.00209,1.36359,0.365362,2.36245,1.00063
0.83,0.733872,1.00216,1.35626,0.35813,2.35508,1.00064
0.84,0.735571,1.00218,1.34892,0.350762,2.34773,1.00066
0.85,0.737108,1.00229,1.34155,0.343513,2.34028,1.00067
0.86,0.738421,1.00227,1.33417,0.336097,2.33294,1.00069
0.87,0.739805,1.00238,1.32678,0.328838,2.32546,1.00069
0.88,0.740643,1.00235,1.31938,0.32141,2.31813,1.00071
0.89,0.74164,1.00246,1.31197,0.31411,2.31061,1.00071
0.9,0.741876,1.00241,1.30455,0.306672,2.30329,1.00072
0.91,0.742619,1.00253,1.29713,0.299349,2.29576,1.00073
0.92,0.742871,1.0025,1.2897,0.29193,2.28841,1.00073
0.93,0.743018,1.00262,1.28228,0.284581,2.28087,1.00076
0.94,0.742889,1.00261,1.27485,0.277176,2.27349,1.00076
0.95,0.742732,1.00272,1.26742,0.269826,2.26599,1.00079
0.96,0.742249,1.00274,1.26,0.262472,2.25859,1.00079
0.97,0.741552,1.00283,1.25258,0.255111,2.25111,1.00082
0.98,0.74065,1.00288,1.24517,0.247789,2.24369,1.00082
0.99,0.739584,1.00294,1.23777,0.240421,2.23626,1.00086
1,0.738149,1.00302,1.23038,0.233168,2.22885,1.00086
1.01,0.736478,1.00307,1.22301,0.225805,2.22146,1.00089
1.02,0.734684,1.00318,1.21565,0.218595,2.21403,1.00089
1.03,0.732544,1.00321,1.20831,0.21126,2.20671,1.00093
1.04,0.730178,1.00334,1.201,0.204114,2.19931,1.00093
1.05,0.727454,1.00336,1.19371,0.196846,2.19206,1.00096
1.06,0.724621,1.0035,1.18645,0.189742,2.18469,1.00097
1.07,0.721373,1.00352,1.17922,0.18255,2.17752,1.00099
1.08,0.717842,1.00368,1.17203,0.175526,2.17021,1.00101
1.09,0.713968,1.0037,1.16487,0.168444,2.16311,1.00102
1.1,0.710026,1.00388,1.15775,0.161478,2.15586,1.00106
1.11,0.705328,1.00393,1.15067,0.154495,2.14882,1.00108
1.12,0.700717,1.00408,1.14364,0.147605,2.1417,1.00112
1.13,0.69552,1.00417,1.13666,0.140778,2.13472,1.00113
1.14,0.689947,1.00431,1.12973,0.133975,2.12772,1.00117
1.15,0.684106,1.00446,1.12286,0.127303,2.12079,1.00119
1.16,0.677739,1.00456,1.11605,0.120644,2.11398,1.00122
1.17,0.671132,1.00476,1.10931,0.114126,2.10714,1.00125
1.18,0.66385,1.00486,1.10264,0.107628,2.10048,1.00127
1.19,0.656341,1.0051,1.09603,0.101279,2.09375,1.00132
1.2,0.648106,1.00524,1.08951,0.0949625,2.08724,1.00135
1.21,0.639497,1.00549,1.08308,0.0888209,2.08068,1.0014
1.22,0.630391,1.00571,1.07673,0.0827532,2.07427,1.00144
1.23,0.620342,1.00594,1.07047,0.0768309,2.06795,1.00147
1.24,0.610036,1.00623,1.06432,0.0710094,2.06169,1.00154
1.25,0.598809,1.00645,1.05828,0.0652974,2.05561,1.00158
1.26,0.58678,1.00679,1.05235,0.0598057,2.04958,1.00164
1.27,0.574292,1.00712,1.04654,0.0544225,2.04368,1.00171
1.28,0.560631,1.00747,1.04087,0.0492843,2.03791,1.00174
1.29,0.546285,1.00791,1.03533,0.0442909,2.03223,1.00183
1.3,0.531261,1.00835,1.02994,0.0395415,2.02675,1.00191
1.31,0.514803,1.00887,1.02471,0.0351141,2.02142,1.00196
1.32,0.497595,1.00949,1.01965,0.0308978,2.01618,1.00206
1.33,0.479456,1.01011,1.01476,0.0269646,2.01119,1.00214
1.34,0.459443,1.0108,1.01007,0.0233675,2.00635,1.00221
1.35,0.438218,1.01171,1.00558,0.020164,2.00165,1.00234
1.36,0.416186,1.01261,1.00131,0.017243,1.99723,1.00247
1.37,0.392086,1.01361,0.997262,0.0147807,1.99301,1.00258
1.38,0.366736,1.01478,0.993466,0.0126761,1.98893,1.00273
1.39,0.339872,1.01598,0.989931,0.0108527,1.98509,1.00289
1.4,0.312194,1.01707,0.98667,0.00921346,1.98163,1.00304
1.41,0.282508,1.01812,0.983693,0.00771608,1.97838,1.00319
1.42,0.251057,1.01917,0.981023,0.0064336,1.9754,1.00335
1.43,0.218283,1.02007,0.978674,0.00520142,1.97282,1.00355
1.44,0.185329,1.02081,0.976655,0.00409666,1.9706,1.00371
1.45,0.151997,1.01983,0.974968,-0,1.96866,1.00384
1.46,0.119052,1.02072,0.973613,1.25994e-07,1.96702,1.00389
1.47,0.0870401,1.02131,0.972583,-0,1.96592,1.0039
1.48,0.0559845,1.02161,0.971868,7.79189e-09,1.96522,1.00385
1.49,0.0265447,1.02158,0.971456,5.12987e-09,1.96509,1.00374
1.5,-0.00085591,1.02134,0.971329,5.63489e-09,1.96525,1.0036
1.51,-0.0262936,1.02088,0.971466,5.94457e-09,1.96576,1.00341
1.52,-0.049711,1.02023,0.971847,3.72558e-09,1.96658,1.00318
1.53,-0.0706817,1.01952,0.972451,3.87637e-09,1.96753,1.00296
1.54,-0.0891448,1.01874,0.973251,3.98845e-09,1.96862,1.00276
1.55,-0.104838,1.01789,0.974222,4.06651e-09,1.96988,1.00256
1.56,-0.117494,1.01699,0.975337,4.13767e-09,1.97127,1.00238
1.57,-0.127201,1.01603,0.976561,4.23945e-09,1.97282,1.00222
1.58,-0.135031,1.0151,0.977872,-0,1.97438,1.0021
1.59,-0.140544,1.01417,0.979252,4.27915e-09,1.97587,1.00193
1.6,-0.143621,1.01316,0.980673,-0,1.97756,1.00179
1.61,-0.144801,1.01217,0.982116,4.34018e-09,1.97925,1.00167
1.62,-0.144161,1.01119,0.983561,4.33695e-09,1.98093,1.00155
1.63,-0.141767,1.01019,0.984992,4.35019e-09,1.9826,1.00141
1.64,-0.137658,1.0092,0.986389,4.3653e-09,1.98424,1.00125
1.65,-0.132159,1.00825,0.987739,4.24365e-09,1.98582,1.0011
1.66,-0.125124,1.00733,0.989026,4.44959e-09,1.98734,1.00095
1.67,-0.116795,1.00645,0.990236,-0,1.98882,1.00082
1.68,-0.107811,1.00566,0.991359,-0,1.99013,1.0007
1.69,-0.0978553,1.00497,0.992388,4.09904e-09,1.99128,1.00059
1.7,-0.0868582,1.00436,0.993312,6.28756e-09,1.99232,1.0005
1.71,-0.0752338,1.00384,0.994123,1.0105e-08,1.99327,1.00046
1.72,-0.0633761,1.00343,0.994816,1.73976e-08,1.99405,1.00045
1.73,-0.0513081,1.00315,0.995389,3.10146e-08,1.99461,1.00045
1.74,-0.0392995,1.00294,0.995842,6.20274e-08,1.99506,1.00046
1.75,-0.0276698,1.00282,0.996176,5.48395e-08,1.99533,1.00048
1.76,-0.0170617,1.0028,0.9964,8.64215e-08,1.99548,1.00053
1.77,-0.00701497,1.00284,0.996519,1.67204e-07,1.99553,1.00059
1.78,0.00207649,1.00294,0.996543,1.33113e-07,1.99544,1.00065
