time,velocity,ratio,centerX,Xmax,Xmin,Ymax
0,0,1,4.75,3.75,5.75,1
0.01,0.0199651,0.999993,4.7499,3.74989,5.74991,1
0.02,0.0396184,1.00001,4.7496,3.74961,5.74959,1
0.03,0.058915,1.00007,4.74911,3.74916,5.74906,1.00002
0.04,0.0777905,1.00011,4.74843,3.7485,5.74834,1.00003
0.05,0.096295,1.00014,4.74756,3.74764,5.74745,1.00005
0.06,0.114462,1.00019,4.74651,3.74662,5.74636,1.00006
0.07,0.132303,1.00023,4.74528,3.74542,5.74509,1.00007
0.08,0.149853,1.00027,4.74387,3.74405,5.74364,1.00007
0.09,0.167133,1.0003,4.74229,3.7425,5.74204,1.00006
0.1,0.18429,1.00033,4.74053,3.74077,5.74026,1.00008
0.11,0.20127,1.00032,4.7386,3.73884,5.73838,1.00009
0.12,0.218043,1.00029,4.73651,3.7367,5.73634,1.00011
0.13,0.234499,1.00028,4.73425,3.73442,5.7341,1.00012
0.14,0.250624,1.00029,4.73182,3.732,5.73165,1.00012
0.15,0.266407,1.00032,4.72924,3.72946,5.72899,1.00009
0.16,0.281862,1.00036,4.7265,3.72677,5.72619,1.00007
0.17,0.297208,1.0004,4.7236,3.72389,5.72326,1.00008
0.18,0.312421,1.00037,4.72056,3.72081,5.72028,1.0001
0.19,0.327354,1.00033,4.71736,3.71754,5.71716,1.00014
0.2,0.341932,1.00037,4.71401,3.71421,5.71377,1.00016
0.21,0.356179,1.00044,4.71052,3.71078,5.7102,1.00015
0.22,0.370409,1.00054,4.70689,3.70726,5.70647,1.00014
0.23,0.384371,1.00059,4.70312,3.70358,5.70269,1.00014
0.24,0.398039,1.00061,4.69921,3.69966,5.69881,1.00018
0.25,0.411347,1.00064,4.69516,3.69559,5.6947,1.00019
0.26,0.424651,1.00065,4.69098,3.69135,5.69052,1.00023
0.27,0.437871,1.00066,4.68667,3.68708,5.68623,1.00024
0.28,0.450628,1.00074,4.68223,3.68274,5.68174,1.00023
0.29,0.463098,1.0008,4.67766,3.67821,5.67707,1.00022
0.3,0.475619,1.00082,4.67297,3.67353,5.67234,1.00023
0.31,0.487678,1.00075,4.66815,3.66865,5.66764,1.00024
0.32,0.499576,1.00078,4.66322,3.66375,5.6627,1.00025
0.33,0.511588,1.00082,4.65816,3.6587,5.65761,1.00028
0.34,0.523324,1.00077,4.65299,3.6535,5.65249,1.00026
0.35,0.534698,1.00081,4.6477,3.64825,5.64711,1.00024
0.36,0.546171,1.00092,4.6423,3.64291,5.64161,1.00027
0.37,0.557245,1.00088,4.63678,3.63739,5.63618,1.00027
0.38,0.567996,1.00088,4.63116,3.63176,5.63056,1.00027
0.39,0.578664,1.00096,4.62542,3.62604,5.62474,1.00031
0.4,0.588906,1.00094,4.61959,3.62019,5.61896,1.00032
0.41,0.599096,1.00099,4.61365,3.61432,5.61297,1.00032
0.42,0.609223,1.00105,4.60761,3.60834,5.60688,1.00032
0.43,0.618924,1.00102,4.60147,3.60218,5.60078,1.00032
0.44,0.628734,1.00111,4.59523,3.59599,5.59447,1.00035
0.45,0.63812,1.00108,4.58889,3.58963,5.58817,1.00035
0.46,0.647799,1.00108,4.58247,3.58317,5.58174,1.00037
0.47,0.657045,1.00116,4.57594,3.57674,5.57514,1.00037
0.48,0.666085,1.00113,4.56933,3.57009,5.56857,1.00037
0.49,0.675299,1.00122,4.56262,3.56342,5.56175,1.00038
0.5,0.684168,1.0012,4.55582,3.55665,5.555,1.00037
0.51,0.693067,1.00124,4.54894,3.54974,5.54809,1.00042
0.52,0.701763,1.00128,4.54196,3.54286,5.5411,1.0004
0.53,0.710254,1.00127,4.5349,3.53575,5.53407,1.00044
0.54,0.718719,1.00134,4.52776,3.52867,5.52684,1.00043
0.55,0.727089,1.00136,4.52053,3.52145,5.51962,1.00044
0.56,0.7353,1.0014,4.51322,3.51416,5.51225,1.00045
0.57,0.743388,1.00141,4.50583,3.50681,5.50488,1.00044
0.58,0.751615,1.00144,4.49835,3.49929,5.49736,1.00047
0.59,0.759151,1.00145,4.4908,3.4918,5.48983,1.00046
0.6,0.766844,1.00148,4.48317,3.48414,5.48216,1.00049
0.61,0.77433,1.00147,4.47546,3.47649,5.47451,1.00047
0.62,0.781862,1.00153,4.46768,3.4687,5.46665,1.0005
0.63,0.789112,1.00151,4.45983,3.46089,5.45885,1.00048
0.64,0.796337,1.00156,4.4519,3.45294,5.45085,1.00051
0.65,0.803306,1.00153,4.4439,3.44498,5.44291,1.00049
0.66,0.810411,1.00159,4.43584,3.43689,5.43476,1.00052
0.67,0.817235,1.00157,4.4277,3.42879,5.42667,1.00051
0.68,0.824137,1.00162,4.41949,3.42057,5.41839,1.00053
0.69,0.830572,1.00162,4.41122,3.41233,5.41015,1.00053
0.7,0.83726,1.00168,4.40288,3.40401,5.40174,1.00055
0.71,0.843898,1.0017,4.39447,3.39564,5.39337,1.00056
0.72,0.850463,1.00176,4.386,3.38721,5.38482,1.00056
0.73,0.85685,1.00178,4.37747,3.37869,5.37631,1.00058
0.74,0.863111,1.00181,4.36887,3.37012,5.36765,1.00057
0.75,0.869419,1.00185,4.3602,3.36148,5.359,1.00061
0.76,0.876348,1.00183,4.35148,3.35275,5.35026,1.00058
0.77,0.883341,1.00193,4.34268,3.34397,5.34139,1.00063
0.78,0.889271,1.00193,4.33382,3.33512,5.33252,1.00062
0.79,0.895237,1.002,4.32489,3.32623,5.32353,1.00065
0.8,0.901062,1.00199,4.31591,3.31726,5.3146,1.00066
0.81,0.906894,1.00203,4.30687,3.30825,5.30552,1.00066
0.82,0.912653,1.00203,4.29778,3.29917,5.29647,1.00068
0.83,0.918474,1.00201,4.28862,3.29003,5.2873,1.00065
0.84,0.92415,1.00204,4.27941,3.28082,5.27809,1.00067
0.85,0.929673,1.00202,4.27014,3.27155,5.26884,1.00066
0.86,0.935127,1.00206,4.26082,3.26224,5.25945,1.00066
0.87,0.94055,1.00204,4.25144,3.25284,5.25011,1.00068
0.88,0.945814,1.00205,4.242,3.24342,5.24063,1.00065
0.89,0.951067,1.00208,4.23252,3.23394,5.23116,1.00069
0.9,0.956262,1.00208,4.22298,3.2244,5.22162,1.00069
0.91,0.961387,1.00214,4.2134,3.21485,5.21197,1.00069
0.92,0.966476,1.00216,4.20376,3.20524,5.20236,1.00072
0.93,0.971447,1.00218,4.19407,3.19559,5.19264,1.0007
0.94,0.976435,1.00224,4.18433,3.18587,5.18286,1.00073
0.95,0.981396,1.00226,4.17454,3.1761,5.17309,1.00075
0.96,0.986159,1.00229,4.1647,3.16628,5.16318,1.00073
0.97,0.991028,1.00232,4.15482,3.15639,5.15331,1.00077
0.98,0.995748,1.00233,4.14488,3.14646,5.14335,1.00077
0.99,1.00049,1.00237,4.1349,3.13652,5.13332,1.00076
1,1.00512,1.00238,4.12487,3.1265,5.12333,1.00079
1.01,1.00956,1.00237,4.1148,3.11643,5.11325,1.00077
1.02,1.01406,1.00239,4.10468,3.10633,5.10312,1.00078
1.03,1.01856,1.00239,4.09452,3.09616,5.09299,1.0008
1.04,1.02303,1.00239,4.08431,3.08597,5.08276,1.00078
1.05,1.02725,1.00241,4.07406,3.07573,5.07249,1.00079
1.06,1.03157,1.00242,4.06377,3.06543,5.0622,1.0008
1.07,1.03581,1.00243,4.05343,3.05511,5.05182,1.00078
1.08,1.03996,1.00245,4.04305,3.04472,5.04144,1.00081
1.09,1.04351,1.00246,4.03264,3.03429,5.03103,1.00083
1.1,1.04757,1.00248,4.02218,3.02387,5.02054,1.00081
1.11,1.0516,1.00251,4.01169,3.01339,5.01004,1.00083
1.12,1.0558,1.00254,4.00115,3.00288,4.9995,1.00085
1.13,1.05945,1.00259,3.99057,2.99237,4.98887,1.00083
1.14,1.06325,1.00261,3.97996,2.98177,4.97826,1.00085
1.15,1.06703,1.00263,3.96931,2.97112,4.96762,1.00088
1.16,1.07256,1.00267,3.95861,2.96046,4.95687,1.00088
1.17,1.07651,1.00271,3.94786,2.94971,4.94609,1.00089
1.18,1.08041,1.00274,3.93708,2.93894,4.9353,1.00092
1.19,1.084,1.00277,3.92626,2.92814,4.92444,1.00091
1.2,1.08744,1.00278,3.9154,2.91731,4.91355,1.0009
1.21,1.09039,1.00278,3.90451,2.90641,4.90271,1.00092
1.22,1.09388,1.00276,3.89359,2.89548,4.89181,1.00092
1.23,1.09726,1.00276,3.88263,2.88456,4.88083,1.00089
1.24,1.10075,1.00276,3.87164,2.87355,4.86989,1.00092
1.25,1.10403,1.00275,3.86062,2.86253,4.85887,1.00092
1.26,1.10726,1.00276,3.84956,2.8515,4.84778,1.00089
1.27,1.11051,1.00275,3.83847,2.84036,4.83667,1.0009
1.28,1.11378,1.00277,3.82735,2.82925,4.82557,1.00092
1.29,1.11697,1.00278,3.8162,2.81811,4.8144,1.00092
1.3,1.1211,1.00279,3.80501,2.80693,4.80316,1.0009
1.31,1.12458,1.00283,3.79378,2.79571,4.79195,1.00094
1.32,1.12777,1.00287,3.78252,2.78449,4.78067,1.00096
1.33,1.13087,1.00291,3.77123,2.77324,4.76933,1.00095
1.34,1.13403,1.00293,3.7599,2.76191,4.75799,1.00096
1.35,1.13727,1.00298,3.74855,2.7506,4.74664,1.00099
1.36,1.14016,1.00301,3.73716,2.73925,4.73523,1.00099
1.37,1.14324,1.00302,3.72574,2.72784,4.72377,1.00098
1.38,1.14622,1.00303,3.7143,2.71638,4.71234,1.001
1.39,1.14922,1.00305,3.70282,2.70492,4.70086,1.00102
1.4,1.15209,1.00306,3.69131,2.69343,4.68934,1.001
1.41,1.15489,1.00303,3.67978,2.68187,4.6778,1.00098
1.42,1.15774,1.00303,3.66822,2.67031,4.66627,1.00101
1.43,1.16055,1.00304,3.65663,2.65872,4.65468,1.00101
1.44,1.16334,1.00304,3.64501,2.64711,4.64305,1.001
1.45,1.16617,1.00302,3.63336,2.63545,4.6314,1.00099
1.46,1.16893,1.00304,3.62168,2.62379,4.61975,1.00101
1.47,1.17156,1.00305,3.60998,2.6121,4.60804,1.00102
1.48,1.17418,1.00307,3.59825,2.60038,4.59627,1.00101
1.49,1.17673,1.00306,3.5865,2.5886,4.58449,1.001
1.5,1.17944,1.0031,3.57472,2.57684,4.57272,1.00103
1.51,1.18206,1.00312,3.56291,2.56505,4.5609,1.00104
1.52,1.18463,1.00315,3.55108,2.55325,4.54903,1.00104
1.53,1.18713,1.00315,3.53922,2.54137,4.53715,1.00103
1.54,1.1898,1.00318,3.52733,2.52951,4.52528,1.00106
1.55,1.19229,1.0032,3.51542,2.51762,4.51337,1.00107
1.56,1.19475,1.00323,3.50349,2.50572,4.50141,1.00107
1.57,1.19719,1.00324,3.49152,2.49377,4.48942,1.00106
1.58,1.19936,1.00327,3.47954,2.48182,4.47745,1.00108
1.59,1.20181,1.00329,3.46754,2.46982,4.46543,1.00109
1.6,1.20411,1.0033,3.45551,2.45779,4.45339,1.00109
1.61,1.20633,1.0033,3.44345,2.44573,4.44133,1.00108
1.62,1.20851,1.00329,3.43138,2.43365,4.42926,1.00109
1.63,1.21103,1.00331,3.41928,2.42158,4.41717,1.0011
1.64,1.21333,1.00332,3.40716,2.40946,4.40503,1.0011
1.65,1.21556,1.00333,3.39502,2.39732,4.39286,1.0011
1.66,1.21771,1.00332,3.38285,2.38515,4.3807,1.00108
1.67,1.21982,1.00334,3.37066,2.373,4.36855,1.00111
1.68,1.22199,1.00336,3.35845,2.3608,4.35634,1.00112
1.69,1.2241,1.00337,3.34622,2.34856,4.34407,1.00112
1.7,1.2262,1.00337,3.33397,2.3363,4.33179,1.00111
1.71,1.22826,1.00338,3.3217,2.32404,4.31951,1.00111
1.72,1.2304,1.00341,3.30941,2.31178,4.30723,1.00113
1.73,1.23248,1.00342,3.29709,2.29946,4.29492,1.00114
1.74,1.23355,1.00343,3.28476,2.28712,4.28255,1.00113
1.75,1.23546,1.00342,3.27242,2.27476,4.27019,1.00113
1.76,1.23721,1.00343,3.26006,2.26243,4.25785,1.00113
1.77,1.2391,1.00345,3.24767,2.25008,4.24549,1.00115
1.78,1.24068,1.00346,3.23528,2.2377,4.23308,1.00115
1.79,1.24227,1.00348,3.22286,2.22528,4.22063,1.00114
1.8,1.24391,1.00347,3.21043,2.21284,4.20818,1.00114
1.81,1.24554,1.00349,3.19798,2.20042,4.19576,1.00116
1.82,1.24715,1.0035,3.18552,2.18796,4.18331,1.00117
1.83,1.24869,1.00351,3.17304,2.17548,4.17081,1.00117
1.84,1.24716,1.00353,3.16057,2.163,4.15829,1.00116
1.85,1.24863,1.00352,3.14809,2.15052,4.1458,1.00115
1.86,1.25018,1.00352,3.13559,2.13805,4.13335,1.00116
1.87,1.25176,1.00353,3.12309,2.12554,4.12086,1.00117
1.88,1.25323,1.00352,3.11056,2.11302,4.10834,1.00118
1.89,1.25458,1.00353,3.09802,2.10047,4.09577,1.00117
1.9,1.25594,1.00352,3.08547,2.08791,4.0832,1.00115
1.91,1.25741,1.00353,3.0729,2.07536,4.07066,1.00117
1.92,1.25886,1.00354,3.06032,2.06279,4.05808,1.00118
1.93,1.26006,1.00354,3.04773,2.05018,4.04548,1.00118
1.94,1.26143,1.00355,3.03512,2.03756,4.03283,1.00118
1.95,1.26295,1.00355,3.0225,2.02492,4.02019,1.00117
1.96,1.26428,1.00356,3.00986,2.01232,4.00758,1.00118
1.97,1.26559,1.00359,2.99721,1.9997,3.99493,1.0012
1.98,1.26681,1.00361,2.98455,1.98707,3.98227,1.0012
1.99,1.26795,1.00364,2.97188,1.97442,3.96956,1.0012
2,1.2691,1.00365,2.95919,1.96173,3.95684,1.0012
2.01,1.27021,1.00366,2.94649,1.94905,3.94417,1.00121
2.02,1.27127,1.00368,2.93379,1.93636,3.93148,1.00123
2.03,1.27228,1.00369,2.92107,1.92365,3.91875,1.00123
2.04,1.27328,1.00372,2.90834,1.91092,3.90596,1.00123
2.05,1.27443,1.00372,2.8956,1.89817,3.89319,1.00122
2.06,1.27537,1.00371,2.88285,1.88543,3.88046,1.00121
2.07,1.27642,1.00371,2.8701,1.8727,3.86775,1.00123
2.08,1.2774,1.00371,2.85733,1.85993,3.85501,1.00124
2.09,1.27843,1.00371,2.84455,1.84714,3.84221,1.00124
2.1,1.27952,1.00371,2.83176,1.83434,3.8294,1.00123
2.11,1.28049,1.00371,2.81896,1.82155,3.81659,1.00122
2.12,1.28152,1.0037,2.80615,1.80876,3.8038,1.00121
2.13,1.28229,1.00371,2.79333,1.79593,3.79099,1.00123
2.14,1.28323,1.00372,2.7805,1.78308,3.77814,1.00124
2.15,1.28418,1.00373,2.76766,1.77024,3.76528,1.00124
2.16,1.28505,1.00375,2.75482,1.75742,3.75242,1.00124
2.17,1.28594,1.00375,2.74196,1.7446,3.73957,1.00123
2.18,1.28674,1.00378,2.7291,1.73178,3.72672,1.00125
2.19,1.28751,1.00381,2.71623,1.71891,3.71383,1.00126
2.2,1.28834,1.00383,2.70335,1.70602,3.70094,1.00127
2.21,1.28904,1.00385,2.69046,1.69316,3.68804,1.00128
2.22,1.28975,1.00385,2.67757,1.68027,3.67513,1.00127
2.23,1.29032,1.00385,2.66467,1.66737,3.66222,1.00126
2.24,1.29108,1.00386,2.65176,1.65447,3.64931,1.00128
2.25,1.2919,1.00387,2.63885,1.64154,3.63639,1.00128
2.26,1.29252,1.00386,2.62593,1.62862,3.62348,1.00128
2.27,1.29309,1.00386,2.613,1.61571,3.61057,1.00128
2.28,1.29383,1.00385,2.60006,1.60277,3.59763,1.00127
2.29,1.2946,1.00383,2.58712,1.58981,3.58469,1.00126
2.3,1.29546,1.00383,2.57417,1.57686,3.57176,1.00127
2.31,1.29612,1.00383,2.56121,1.5639,3.55881,1.00128
2.32,1.29665,1.00383,2.54825,1.55094,3.54584,1.00127
2.33,1.2974,1.00384,2.53528,1.53795,3.53283,1.00127
2.34,1.29803,1.00384,2.5223,1.52496,3.51984,1.00127
2.35,1.29863,1.00385,2.50932,1.512,3.50687,1.00127
2.36,1.29908,1.00387,2.49633,1.49904,3.49389,1.00129
2.37,1.29945,1.00391,2.48334,1.4861,3.4809,1.0013
2.38,1.29948,1.00395,2.47034,1.47314,3.46786,1.0013
2.39,1.29965,1.00398,2.45735,1.46015,3.45483,1.00131
2.4,1.30005,1.004,2.44435,1.44718,3.44184,1.00132
2.41,1.30041,1.00402,2.43135,1.43421,3.42884,1.00133
2.42,1.30071,1.00405,2.41834,1.42121,3.41582,1.00134
2.43,1.30105,1.00406,2.40533,1.40818,3.40278,1.00135
2.44,1.3013,1.00407,2.39232,1.39517,3.38974,1.00135
2.45,1.30142,1.00407,2.37931,1.38216,3.37672,1.00134
2.46,1.30158,1.00404,2.36629,1.36916,3.36375,1.00133
2.47,1.30184,1.00402,2.35327,1.35615,3.35078,1.00132
2.48,1.30199,1.00402,2.34026,1.34312,3.33776,1.00133
2.49,1.30223,1.00401,2.32723,1.33008,3.32475,1.00133
2.5,1.30195,1.00401,2.31421,1.31707,3.31172,1.00133
2.51,1.30194,1.00402,2.30119,1.30406,3.29869,1.00132
2.52,1.30196,1.00402,2.28818,1.29104,3.28565,1.00131
2.53,1.30208,1.00403,2.27515,1.27802,3.27263,1.00132
2.54,1.30293,1.00405,2.26213,1.26499,3.25959,1.00134
2.55,1.30308,1.00408,2.2491,1.25198,3.24655,1.00135
2.56,1.30304,1.00412,2.23607,1.239,3.23352,1.00136
2.57,1.30284,1.00416,2.22304,1.22601,3.22045,1.00136
2.58,1.3027,1.00418,2.21001,1.213,3.20739,1.00136
2.59,1.30253,1.0042,2.19699,1.2,3.19438,1.00137
2.6,1.30244,1.00422,2.18396,1.18699,3.18136,1.00139
2.61,1.30235,1.00422,2.17094,1.17397,3.16835,1.0014
2.62,1.302,1.00424,2.15792,1.16094,3.15529,1.0014
2.63,1.30181,1.00424,2.1449,1.14791,3.14224,1.00139
2.64,1.30139,1.00422,2.13188,1.13489,3.12923,1.00137
2.65,1.301,1.0042,2.11887,1.1219,3.11627,1.00137
2.66,1.30069,1.0042,2.10586,1.1089,3.1033,1.00138
2.67,1.30037,1.0042,2.09286,1.09588,3.09028,1.00138
2.68,1.29996,1.0042,2.07985,1.08288,3.07727,1.00138
2.69,1.29951,1.00421,2.06686,1.0699,3.06425,1.00138
2.7,1.29891,1.00421,2.05386,1.05693,3.05126,1.00137
2.71,1.29818,1.00423,2.04088,1.04396,3.03828,1.00138
2.72,1.29745,1.00427,2.0279,1.03099,3.02527,1.0014
2.73,1.29671,1.00429,2.01493,1.01801,3.01229,1.00141
2.74,1.29607,1.00432,2.00197,1.00508,2.9993,1.00142
2.75,1.29512,1.00435,1.98901,0.992168,2.98634,1.00142
2.76,1.29422,1.00436,1.97606,0.979251,2.97338,1.00141
2.77,1.29335,1.00439,1.96313,0.966335,2.96044,1.00143
2.78,1.29233,1.00441,1.9502,0.953421,2.94752,1.00145
2.79,1.29141,1.00442,1.93728,0.940514,2.9346,1.00145
2.8,1.2903,1.00444,1.92437,0.927629,2.92168,1.00145
2.81,1.28929,1.00445,1.91147,0.914738,2.90875,1.00145
2.82,1.28814,1.00444,1.89858,0.90184,2.89585,1.00143
2.83,1.28679,1.00445,1.88571,0.888977,2.883,1.00145
2.84,1.28552,1.00447,1.87285,0.876128,2.87014,1.00146
2.85,1.28408,1.00447,1.86,0.863306,2.85731,1.00146
2.86,1.28282,1.00451,1.84716,0.850502,2.84444,1.00146
2.87,1.28129,1.00452,1.83434,0.837692,2.8316,1.00146
2.88,1.2799,1.00453,1.82154,0.82491,2.8188,1.00146
2.89,1.27833,1.00455,1.80875,0.812148,2.80602,1.00148
2.9,1.2768,1.00458,1.79597,0.799384,2.79324,1.00149
2.91,1.27512,1.00461,1.78321,0.78664,2.78044,1.00149
2.92,1.27351,1.00463,1.77047,0.773911,2.76766,1.0015
2.93,1.27157,1.00465,1.75774,0.761212,2.75493,1.00149
2.94,1.26953,1.00468,1.74504,0.748554,2.74225,1.00151
2.95,1.26757,1.00471,1.73235,0.73591,2.72957,1.00153
2.96,1.26547,1.00475,1.71969,0.723266,2.71687,1.00153
2.97,1.26344,1.00478,1.70704,0.710644,2.7042,1.00154
2.98,1.26118,1.00479,1.69442,0.698052,2.69157,1.00153
2.99,1.25895,1.0048,1.68182,0.685482,2.67898,1.00154
3,1.2567,1.00483,1.66924,0.672923,2.66641,1.00156
3.01,1.25413,1.00485,1.65669,0.66037,2.65383,1.00156
3.02,1.25174,1.00487,1.64416,0.647855,2.64128,1.00156
3.03,1.24923,1.00488,1.63165,0.635388,2.62876,1.00155
3.04,1.24641,1.0049,1.61918,0.622956,2.6163,1.00156
3.05,1.24374,1.00494,1.60672,0.610557,2.60387,1.00158
3.06,1.24084,1.00498,1.5943,0.598161,2.59141,1.00159
3.07,1.23679,1.00502,1.58192,0.585804,2.579,1.0016
3.08,1.2337,1.00504,1.56956,0.573495,2.56663,1.00159
3.09,1.23016,1.00508,1.55724,0.561227,2.55432,1.0016
3.1,1.22684,1.00513,1.54496,0.548985,2.54202,1.00163
3.11,1.22345,1.00518,1.53271,0.536769,2.52972,1.00164
3.12,1.21978,1.00523,1.52049,0.524592,2.51747,1.00165
3.13,1.21596,1.00527,1.50831,0.512475,2.50527,1.00164
3.14,1.21221,1.00534,1.49617,0.500423,2.49314,1.00168
3.15,1.20801,1.0054,1.48407,0.488388,2.48103,1.0017
3.16,1.20389,1.00547,1.47201,0.476393,2.46892,1.00171
3.17,1.19941,1.00551,1.45999,0.464416,2.45687,1.00171
3.18,1.19495,1.00556,1.44802,0.45252,2.44489,1.00173
3.19,1.19025,1.00563,1.43609,0.440671,2.43297,1.00176
3.2,1.18545,1.00568,1.42422,0.428843,2.42106,1.00177
3.21,1.18046,1.00574,1.41239,0.417079,2.40917,1.00176
3.22,1.17516,1.00578,1.40061,0.405334,2.39738,1.00178
3.23,1.16992,1.00585,1.38888,0.3937,2.38566,1.00181
3.24,1.16448,1.00591,1.37721,0.382124,2.37398,1.00182
3.25,1.15857,1.00598,1.36559,0.370597,2.36234,1.00182
3.26,1.15268,1.00604,1.35404,0.359104,2.35075,1.00183
3.27,1.14666,1.00613,1.34254,0.347703,2.33924,1.00187
3.28,1.14004,1.00621,1.33111,0.336368,2.32777,1.00189
3.29,1.13342,1.0063,1.31974,0.325131,2.31636,1.00189
3.3,1.12665,1.00639,1.30844,0.31392,2.30504,1.00192
3.31,1.11953,1.00651,1.29721,0.302812,2.29376,1.00196
3.32,1.11224,1.00663,1.28605,0.291782,2.28254,1.00197
3.33,1.1045,1.00671,1.27497,0.280809,2.27142,1.00199
3.34,1.09659,1.00685,1.26396,0.269959,2.2604,1.00204
3.35,1.08826,1.00699,1.25304,0.259212,2.24943,1.00207
3.36,1.07977,1.00712,1.2422,0.248536,2.23851,1.00208
3.37,1.07099,1.00727,1.23144,0.237946,2.22773,1.00212
3.38,1.06185,1.00742,1.22078,0.227469,2.21703,1.00216
3.39,1.05231,1.00758,1.21021,0.217109,2.20638,1.00218
3.4,1.04248,1.00774,1.19973,0.206811,2.19586,1.00222
3.41,1.03208,1.00791,1.18936,0.196638,2.18546,1.00227
3.42,1.02146,1.0081,1.17909,0.186614,2.17509,1.00229
3.43,1.01036,1.0083,1.16893,0.176693,2.16486,1.00234
3.44,0.998755,1.0085,1.15889,0.166899,2.15479,1.00239
3.45,0.986653,1.00872,1.14896,0.157283,2.14476,1.00241
3.46,0.974006,1.00898,1.13916,0.147799,2.1349,1.00248
3.47,0.960827,1.00924,1.12948,0.138456,2.12517,1.00253
3.48,0.947023,1.00954,1.11994,0.129326,2.11551,1.00256
3.49,0.932644,1.00988,1.11054,0.120351,2.10604,1.00265
3.5,0.917349,1.01023,1.10129,0.111548,2.09667,1.00271
3.51,0.901449,1.01066,1.0922,0.102995,2.08743,1.00279
3.52,0.884489,1.01108,1.08327,0.0946179,2.0784,1.00288
3.53,0.866829,1.01158,1.07451,0.0865132,2.06946,1.00295
3.54,0.848188,1.01214,1.06594,0.0786803,2.06076,1.00307
3.55,0.828518,1.01271,1.05755,0.071051,2.05216,1.00315
3.56,0.80769,1.01341,1.04937,0.063785,2.04383,1.00329
3.57,0.78561,1.01411,1.0414,0.0567767,2.03565,1.0034
3.58,0.762296,1.01497,1.03366,0.05019,2.02769,1.00356
3.59,0.737494,1.01586,1.02616,0.0439413,2.01997,1.00368
3.6,0.711358,1.01699,1.01892,0.0382805,2.01247,1.00386
3.61,0.684005,1.01816,1.01194,0.0330226,2.00522,1.00401
3.62,0.654489,1.01959,1.00524,0.0283538,1.99821,1.00422
3.63,0.623791,1.02108,0.998851,0.0241609,1.99148,1.0044
3.64,0.590284,1.02277,0.992779,0.0205556,1.98508,1.00462
3.65,0.555111,1.0247,0.987049,0.0176591,1.97892,1.00485
3.66,0.517806,1.0267,0.981682,0.0152246,1.97319,1.00512
3.67,0.478717,1.02887,0.976696,0.0132583,1.96771,1.00544
3.68,0.438023,1.03095,0.972109,0.0116114,1.96269,1.00573
3.69,0.395403,1.03299,0.967939,0.0102106,1.95798,1.00602
3.7,0.350962,1.035,0.964204,0.008971,1.95362,1.00635
3.71,0.305441,1.03681,0.96092,0.00787642,1.94976,1.00668
3.72,0.259211,1.03832,0.958095,0.0068747,1.94649,1.00698
3.73,0.212618,1.03956,0.955735,0.00589636,1.9437,1.00723
3.74,0.165271,1.04049,0.953844,0.00494903,1.94143,1.00744
3.75,0.118142,1.04114,0.952427,0.00407354,1.93963,1.00759
3.76,0.0719859,1.04001,0.951476,0.000748415,1.93849,1.00764
