time,velocity,ratio,centerX,Xmax,Xmin,Ymax
0,0,0.999999,1.1,0.1,2.1,0.999999
0.01,0.0153606,1.00003,1.09992,0.0999681,2.09993,1.00001
0.02,0.0301121,1.00016,1.0997,0.0999119,2.09966,1.00004
0.03,0.0441674,1.00038,1.09933,0.0997918,2.09921,1.00009
0.04,0.0573936,1.00066,1.09882,0.0995622,2.0986,1.00017
0.05,0.0699803,1.00096,1.09818,0.0992096,2.09783,1.00028
0.06,0.0815164,1.0013,1.09743,0.0987356,2.09691,1.00039
0.07,0.0925869,1.00166,1.09656,0.0981416,2.09584,1.0005
0.08,0.102904,1.002,1.09558,0.0974298,2.09464,1.0006
0.09,0.112596,1.0023,1.0945,0.096579,2.09335,1.00068
0.1,0.121913,1.00255,1.09333,0.0956015,2.09201,1.00075
0.11,0.130497,1.00272,1.09207,0.0944975,2.09066,1.00079
0.12,0.138961,1.0028,1.09073,0.0932718,2.0893,1.00081
0.13,0.147181,1.00279,1.0893,0.0919028,2.08791,1.00079
0.14,0.154325,1.00274,1.08779,0.090438,2.08648,1.00076
0.15,0.161603,1.00264,1.08621,0.0888438,2.08499,1.00071
0.16,0.169046,1.00253,1.08456,0.0871436,2.08344,1.00068
0.17,0.176581,1.00241,1.08283,0.0854195,2.08187,1.00063
0.18,0.183719,1.00232,1.08103,0.08359,2.08019,1.00061
0.19,0.190919,1.00229,1.07916,0.0816811,2.0783,1.0006
0.2,0.197475,1.00229,1.07722,0.0797283,2.07634,1.00059
0.21,0.204066,1.00233,1.07521,0.0777735,2.07429,1.00059
0.22,0.210246,1.00244,1.07314,0.0758252,2.07215,1.0006
0.23,0.215607,1.0026,1.07101,0.0738668,2.06994,1.00063
0.24,0.221147,1.00281,1.06883,0.0718577,2.06765,1.00069
0.25,0.226611,1.00301,1.06659,0.0698068,2.06533,1.00077
0.26,0.231131,1.00325,1.0643,0.0677609,2.06299,1.00085
0.27,0.235169,1.00352,1.06197,0.0657074,2.06056,1.00094
0.28,0.238623,1.00382,1.0596,0.063622,2.058,1.00099
0.29,0.241532,1.00405,1.0572,0.0614673,2.05546,1.00103
0.3,0.243928,1.00429,1.05478,0.0593216,2.0529,1.00107
0.31,0.246079,1.00455,1.05233,0.0571467,2.05034,1.00113
0.32,0.247727,1.00472,1.04986,0.0548923,2.04789,1.0012
0.33,0.2493,1.00486,1.04737,0.0525962,2.0454,1.00125
0.34,0.250228,1.00501,1.04487,0.0502808,2.04284,1.00127
0.35,0.250929,1.00512,1.04237,0.0479397,2.04028,1.00127
0.36,0.251176,1.00523,1.03986,0.0456421,2.03773,1.00125
0.37,0.251272,1.00538,1.03735,0.0433838,2.03519,1.00126
0.38,0.251294,1.0055,1.03484,0.0411029,2.03273,1.00129
0.39,0.250903,1.00564,1.03232,0.0388357,2.03024,1.00132
0.4,0.250096,1.00581,1.02982,0.0365739,2.02769,1.00134
0.41,0.248814,1.006,1.02733,0.0343554,2.02514,1.00136
0.42,0.246997,1.00623,1.02485,0.0322051,2.02257,1.00138
0.43,0.244975,1.00654,1.02239,0.0301666,2.02001,1.00143
0.44,0.242745,1.00686,1.01995,0.0281656,2.01751,1.00149
0.45,0.24004,1.0072,1.01754,0.0261973,2.01502,1.00157
0.46,0.236626,1.00758,1.01515,0.0243096,2.01251,1.00164
0.47,0.232643,1.00798,1.01281,0.0224958,2.01003,1.0017
0.48,0.227983,1.00839,1.0105,0.0207476,2.00758,1.00176
0.49,0.222696,1.00886,1.00825,0.0191227,2.0052,1.00184
0.5,0.217211,1.00937,1.00605,0.0176389,2.00289,1.00192
0.51,0.211314,1.00983,1.00391,0.0161563,2.00066,1.00201
0.52,0.205089,1.01037,1.00182,0.0148528,1.99844,1.00208
0.53,0.197982,1.01087,0.999809,0.0135915,1.9963,1.00214
0.54,0.190144,1.0114,0.997868,0.0124547,1.99424,1.00219
0.55,0.181665,1.0119,0.996009,0.0113604,1.99228,1.00224
0.56,0.172531,1.01241,0.994237,0.0103649,1.99041,1.00231
0.57,0.163085,1.01287,0.992559,0.00938211,1.98867,1.00238
0.58,0.153476,1.01335,0.990976,0.00847731,1.98698,1.00246
0.59,0.14359,1.01379,0.989491,0.00762382,1.9854,1.00253
0.6,0.133447,1.01422,0.988105,0.00680028,1.98387,1.00259
0.61,0.123157,1.01458,0.986822,0.00602447,1.9825,1.00264
0.62,0.11251,1.01491,0.985643,0.00528818,1.9812,1.00269
0.63,0.101549,1.01517,0.984573,0.00457971,1.98007,1.00274
0.64,0.090477,1.01537,0.983612,0.0038626,1.97904,1.00277
0.65,0.0793914,1.01386,0.982763,-0,1.97817,1.00279
0.66,0.0684865,1.01426,0.982023,-0,1.97741,1.0028
0.67,0.0580992,1.0146,0.981391,1.46668e-08,1.97674,1.0028
0.68,0.0477654,1.01483,0.980862,-0,1.97624,1.00277
0.69,0.0380901,1.01497,0.980434,-0,1.97586,1.00272
0.7,0.0286187,1.01506,0.9801,4.87995e-09,1.9756,1.00267
0.71,0.0197409,1.01508,0.979858,4.92143e-09,1.97545,1.00262
0.72,0.011632,1.01503,0.9797,5.12085e-09,1.97544,1.00257
0.73,0.0039243,1.01492,0.979623,5.2623e-09,1.97552,1.0025
0.74,-0.00298223,1.0148,0.979618,5.38614e-09,1.97563,1.00244
0.75,-0.00943629,1.01466,0.97968,-0,1.97577,1.00237
0.76,-0.0153659,1.01449,0.979804,5.6019e-09,1.97598,1.00231
0.77,-0.0202293,1.0143,0.979982,5.68012e-09,1.97625,1.00225
0.78,-0.0248274,1.01409,0.980207,5.76874e-09,1.97656,1.00221
0.79,-0.0287588,1.01387,0.980474,5.84663e-09,1.97691,1.00217
0.8,-0.032074,1.01364,0.980778,5.8819e-09,1.97728,1.00213
0.81,-0.0347978,1.0134,0.981112,5.92043e-09,1.97768,1.00209
0.82,-0.0369982,1.01313,0.981471,5.98492e-09,1.9781,1.00204
0.83,-0.0386815,1.01285,0.981849,6.05793e-09,1.97857,1.002
0.84,-0.0398919,1.01257,0.982241,3.68377e-09,1.97903,1.00195
0.85,-0.040687,1.01227,0.982644,3.7132e-09,1.97952,1.0019
0.86,-0.0410808,1.01196,0.983053,-0,1.98002,1.00185
0.87,-0.0410891,1.01166,0.983463,3.72152e-09,1.98051,1.0018
0.88,-0.0407098,1.01136,0.983872,3.73127e-09,1.981,1.00175
0.89,-0.0399377,1.01105,0.984275,3.76404e-09,1.9815,1.0017
0.9,-0.0387976,1.01076,0.984668,3.82106e-09,1.98198,1.00166
0.91,-0.0373291,1.01049,0.985049,-0,1.98243,1.00161
0.92,-0.0355922,1.01023,0.985413,3.83237e-09,1.98286,1.00157
0.93,-0.0336195,1.00999,0.985759,3.84251e-09,1.98326,1.00153
0.94,-0.0314438,1.00977,0.986084,3.8923e-09,1.98362,1.0015
0.95,-0.0291055,1.00957,0.986386,3.91511e-09,1.98397,1.00148
0.96,-0.0266558,1.00939,0.986665,3.90463e-09,1.98429,1.00146
0.97,-0.0241278,1.00922,0.986918,3.91895e-09,1.98458,1.00144
0.98,-0.0215481,1.00909,0.987147,3.98117e-09,1.98481,1.00143
0.99,-0.0189504,1.00899,0.987349,-0,1.985,1.00142
1,-0.0163785,1.00889,0.987525,3.97351e-09,1.98517,1.00141
1.01,-0.0138571,1.00879,0.987676,3.9299e-09,1.98535,1.0014
1.02,-0.0114043,1.00872,0.987802,3.94171e-09,1.98547,1.0014
1.03,-0.00903434,1.00868,0.987905,3.99004e-09,1.98556,1.0014
1.04,-0.00677083,1.00864,0.987983,3.99419e-09,1.98564,1.0014
1.05,-0.00464625,1.0086,0.98804,3.97803e-09,1.98571,1.0014
1.06,-0.00267277,1.00859,0.988077,3.98143e-09,1.98573,1.0014
1.07,-0.000845744,1.00861,0.988094,4.00554e-09,1.98573,1.00141
1.08,0.000837154,1.00863,0.988094,4.02787e-09,1.98571,1.00142
