time,velocity,ratio,centerX,Xmax,Xmin,Ymax
0,0,1,1.25,0.25,2.25,1
0.01,0.0164419,1.00003,1.24992,0.249962,2.24991,1.00001
0.02,0.032466,1.00013,1.24968,0.249848,2.24964,1.00002
0.03,0.0480898,1.00029,1.24928,0.249664,2.24918,1.00005
0.04,0.0632987,1.00052,1.24873,0.249411,2.24856,1.00009
0.05,0.0779696,1.00081,1.24803,0.249094,2.24776,1.00014
0.06,0.0921101,1.00117,1.24719,0.248724,2.2468,1.00021
0.07,0.106185,1.0016,1.2462,0.248297,2.24569,1.00029
0.08,0.119696,1.00208,1.24508,0.247812,2.24441,1.00038
0.09,0.132773,1.00263,1.24382,0.247269,2.24299,1.00048
0.1,0.145855,1.00325,1.24243,0.246677,2.24141,1.00061
0.11,0.158629,1.00394,1.24091,0.246029,2.2397,1.00076
0.12,0.170751,1.00469,1.23927,0.245324,2.23784,1.00093
0.13,0.182895,1.0055,1.23751,0.244562,2.23584,1.00111
0.14,0.194469,1.00636,1.23563,0.243745,2.23371,1.00131
0.15,0.205994,1.00728,1.23363,0.242871,2.23143,1.00152
0.16,0.217034,1.00827,1.23152,0.241944,2.22898,1.00174
0.17,0.227922,1.00933,1.2293,0.240955,2.22638,1.00198
0.18,0.238382,1.01049,1.22697,0.239915,2.22364,1.00226
0.19,0.248773,1.0117,1.22454,0.238831,2.22076,1.00256
0.2,0.25889,1.01297,1.22201,0.237698,2.21775,1.00287
0.21,0.268286,1.01431,1.21937,0.236516,2.21459,1.00319
0.22,0.277598,1.01572,1.21665,0.235278,2.21127,1.00353
0.23,0.286964,1.01722,1.21383,0.233979,2.20783,1.00392
0.24,0.295796,1.01877,1.21092,0.232613,2.20427,1.00433
0.25,0.304707,1.02035,1.20792,0.231183,2.20061,1.00475
0.26,0.31324,1.02199,1.20483,0.229693,2.19679,1.00518
0.27,0.321103,1.02372,1.20167,0.228157,2.19284,1.00565
0.28,0.32886,1.02553,1.19842,0.226574,2.18879,1.00615
0.29,0.336661,1.02737,1.19509,0.224949,2.18466,1.00667
0.3,0.343892,1.02931,1.19169,0.223287,2.18031,1.00719
0.31,0.351155,1.03132,1.18822,0.221597,2.17588,1.00774
0.32,0.357954,1.03338,1.18468,0.219877,2.17142,1.00834
0.33,0.364615,1.03549,1.18107,0.218129,2.16687,1.00895
0.34,0.370976,1.03768,1.17739,0.216338,2.16214,1.00956
0.35,0.377189,1.03997,1.17365,0.214518,2.15729,1.01021
0.36,0.383085,1.04232,1.16986,0.212677,2.15238,1.0109
0.37,0.388551,1.04476,1.166,0.210818,2.1473,1.01158
0.38,0.393634,1.04726,1.16209,0.208941,2.14212,1.01227
0.39,0.398947,1.04984,1.15813,0.207051,2.13691,1.01302
0.4,0.403939,1.05252,1.15412,0.205148,2.13154,1.01378
0.41,0.408556,1.05526,1.15006,0.203243,2.12608,1.01454
0.42,0.413108,1.05802,1.14595,0.20131,2.1206,1.01532
0.43,0.417471,1.06094,1.1418,0.199343,2.11489,1.01615
0.44,0.421556,1.06384,1.13761,0.197353,2.10923,1.01696
0.45,0.425331,1.0667,1.13337,0.195346,2.10362,1.01777
0.46,0.429008,1.06973,1.1291,0.193328,2.09782,1.01865
0.47,0.432512,1.07283,1.1248,0.191305,2.09193,1.01952
0.48,0.435804,1.07597,1.12046,0.189285,2.08597,1.02039
0.49,0.438625,1.07927,1.11609,0.187266,2.07984,1.0213
0.5,0.441506,1.08261,1.11169,0.185304,2.07374,1.02222
0.51,0.444147,1.08603,1.10726,0.183314,2.06751,1.02314
0.52,0.446517,1.0895,1.10281,0.18136,2.06124,1.02407
0.53,0.448357,1.09306,1.09834,0.179382,2.05492,1.02504
0.54,0.450389,1.09669,1.09385,0.177395,2.04849,1.02601
0.55,0.452221,1.10026,1.08933,0.175439,2.04219,1.02696
0.56,0.453906,1.10397,1.0848,0.173486,2.0358,1.02797
0.57,0.455374,1.10773,1.08026,0.171527,2.02933,1.02898
0.58,0.456687,1.11149,1.0757,0.169546,2.02286,1.02997
0.59,0.457825,1.11539,1.07113,0.167576,2.01626,1.031
0.6,0.458765,1.11929,1.06655,0.16562,2.00973,1.03204
0.61,0.459452,1.12325,1.06196,0.16367,2.00309,1.03306
0.62,0.460221,1.12723,1.05736,0.16172,1.9965,1.03411
0.63,0.460657,1.13133,1.05276,0.159774,1.9898,1.03518
0.64,0.460941,1.13543,1.04815,0.157857,1.98313,1.03624
0.65,0.461108,1.13947,1.04354,0.15597,1.97664,1.0373
0.66,0.461113,1.14366,1.03893,0.154089,1.97002,1.0384
0.67,0.460959,1.14783,1.03432,0.152219,1.96343,1.03948
0.68,0.460554,1.15208,1.02971,0.150371,1.95676,1.04055
0.69,0.460112,1.15643,1.02511,0.148543,1.9501,1.04168
0.7,0.459441,1.16078,1.02051,0.146743,1.94345,1.04279
0.71,0.458708,1.16518,1.01592,0.144977,1.93677,1.04388
0.72,0.457816,1.16961,1.01134,0.143239,1.9302,1.04502
0.73,0.456777,1.17416,1.00677,0.141533,1.9235,1.04615
0.74,0.455666,1.17859,1.00221,0.139855,1.917,1.04726
0.75,0.454406,1.18307,0.997659,0.138173,1.91049,1.04839
0.76,0.452972,1.18761,0.993123,0.13649,1.90397,1.04954
0.77,0.451444,1.19211,0.988601,0.134821,1.89751,1.05065
0.78,0.44966,1.1967,0.984097,0.133172,1.89099,1.05179
0.79,0.447785,1.20129,0.97961,0.131548,1.88458,1.05295
0.8,0.44591,1.20591,0.975141,0.129952,1.87815,1.05408
0.81,0.443886,1.21052,0.970693,0.128389,1.87179,1.05521
0.82,0.441704,1.21522,0.966265,0.126858,1.86544,1.05638
0.83,0.439492,1.21992,0.961859,0.125362,1.85912,1.05752
0.84,0.437093,1.22451,0.957477,0.123928,1.85301,1.05863
0.85,0.434649,1.22922,0.953118,0.122515,1.84688,1.05981
0.86,0.432174,1.23394,0.948785,0.121143,1.84078,1.06096
0.87,0.429384,1.23861,0.944477,0.119759,1.83471,1.06208
0.88,0.426649,1.24338,0.940197,0.118408,1.82863,1.06323
0.89,0.423748,1.24812,0.935945,0.117105,1.82266,1.06437
0.9,0.420856,1.25286,0.931722,0.115808,1.81669,1.06548
0.91,0.417834,1.25759,0.927528,0.114527,1.8108,1.06661
0.92,0.414704,1.26238,0.923366,0.113313,1.80496,1.06775
0.93,0.411453,1.26719,0.919235,0.11213,1.79912,1.06887
0.94,0.40816,1.27189,0.915137,0.110973,1.79345,1.06997
0.95,0.404874,1.27664,0.911072,0.109835,1.78784,1.07111
0.96,0.401309,1.2814,0.907042,0.108726,1.78224,1.07222
0.97,0.397735,1.28609,0.903047,0.107642,1.77673,1.0733
0.98,0.394108,1.29086,0.899088,0.106582,1.77124,1.07442
0.99,0.390475,1.29563,0.895166,0.105536,1.76579,1.07553
1,0.386739,1.3003,0.89128,0.104505,1.76045,1.07661
1.01,0.38295,1.30498,0.887431,0.103487,1.75513,1.07768
1.02,0.379077,1.3097,0.883621,0.102511,1.74988,1.07878
1.03,0.375098,1.31435,0.879849,0.101563,1.74471,1.07984
1.04,0.371115,1.319,0.876118,0.100646,1.73955,1.08086
1.05,0.367066,1.32366,0.872427,0.0997632,1.7345,1.08192
1.06,0.362947,1.32822,0.868777,0.0989008,1.7296,1.08297
1.07,0.358784,1.33274,0.865168,0.0980498,1.72474,1.08398
1.08,0.354523,1.33725,0.861601,0.0972281,1.71991,1.08497
1.09,0.350259,1.3418,0.858076,0.096433,1.71516,1.086
1.1,0.345973,1.34631,0.854595,0.0956631,1.71045,1.087
1.11,0.341617,1.35079,0.851156,0.0949183,1.70577,1.08796
1.12,0.33718,1.35524,0.847762,0.0941979,1.70119,1.08893
1.13,0.332675,1.3597,0.844413,0.0935042,1.69667,1.08991
1.14,0.328193,1.3641,0.841108,0.0928145,1.6922,1.09086
1.15,0.323636,1.36841,0.837849,0.0921328,1.68781,1.09178
1.16,0.319087,1.37271,0.834634,0.0914688,1.68351,1.0927
1.17,0.314517,1.37702,0.831466,0.0908214,1.67923,1.09364
1.18,0.309894,1.38125,0.828343,0.0901909,1.67504,1.09453
1.19,0.30522,1.38537,0.825267,0.0895788,1.67095,1.09539
1.2,0.300534,1.38946,0.822238,0.0889831,1.66694,1.09625
1.21,0.295817,1.39356,0.819256,0.08841,1.66299,1.09713
1.22,0.291079,1.3976,0.81632,0.0878485,1.65909,1.09798
1.23,0.286327,1.40156,0.813433,0.0873021,1.65526,1.09879
1.24,0.281548,1.40546,0.810592,0.0867701,1.6515,1.09958
1.25,0.27679,1.40939,0.8078,0.086253,1.6478,1.10041
1.26,0.272016,1.41325,0.805055,0.0857501,1.64416,1.10121
1.27,0.267212,1.41702,0.802358,0.0852602,1.64061,1.10198
1.28,0.262401,1.42072,0.799709,0.0847858,1.63712,1.10272
1.29,0.257593,1.42439,0.797108,0.0843249,1.6337,1.10346
1.3,0.252786,1.42804,0.794556,0.0838739,1.63035,1.10421
1.31,0.247981,1.4316,0.792051,0.0834329,1.62707,1.10493
1.32,0.243184,1.43507,0.789594,0.0830039,1.62387,1.10562
1.33,0.238395,1.43848,0.787185,0.0825868,1.62072,1.10628
1.34,0.233601,1.44184,0.784824,0.0821819,1.61764,1.10694
1.35,0.228824,1.44517,0.782511,0.0817888,1.61464,1.10762
1.36,0.224052,1.44841,0.780246,0.0814054,1.61171,1.10826
1.37,0.219298,1.45156,0.778028,0.0810319,1.60886,1.10887
1.38,0.214541,1.45463,0.775858,0.0806698,1.60608,1.10946
1.39,0.2098,1.45761,0.773735,0.0803143,1.60337,1.11001
1.4,0.205099,1.46057,0.77166,0.079968,1.60071,1.11058
1.41,0.200423,1.46346,0.769631,0.0796228,1.59812,1.11113
1.42,0.195772,1.46626,0.76765,0.0792744,1.59559,1.11166
1.43,0.191137,1.46896,0.765714,0.0789197,1.59313,1.11215
1.44,0.186523,1.47156,0.763825,0.0785576,1.59073,1.11262
1.45,0.181933,1.47406,0.761983,0.0781899,1.5884,1.11307
1.46,0.177386,1.47648,0.760185,0.0778181,1.58613,1.1135
1.47,0.172879,1.47886,0.758433,0.077438,1.58393,1.11395
1.48,0.168385,1.48114,0.756725,0.0770518,1.5818,1.11437
1.49,0.163939,1.48331,0.755062,0.0766591,1.57973,1.11476
1.5,0.159527,1.4854,0.753444,0.0762594,1.57772,1.11513
1.51,0.155151,1.48738,0.751869,0.0758532,1.57578,1.11548
1.52,0.150818,1.48927,0.750338,0.0754411,1.5739,1.1158
1.53,0.146528,1.49106,0.74885,0.0750273,1.57209,1.1161
1.54,0.142265,1.49279,0.747405,0.0746116,1.57034,1.1164
1.55,0.138074,1.49446,0.746002,0.0741926,1.56865,1.1167
1.56,0.133932,1.49604,0.74464,0.0737701,1.56702,1.11697
1.57,0.129846,1.49752,0.74332,0.073347,1.56544,1.11723
1.58,0.125764,1.49892,0.74204,0.0729178,1.56393,1.11745
1.59,0.121763,1.50023,0.740801,0.0724908,1.56248,1.11766
1.6,0.117772,1.50144,0.739602,0.0720556,1.56109,1.11785
1.61,0.113822,1.50256,0.738442,0.0716195,1.55976,1.11801
1.62,0.109959,1.5036,0.737322,0.0711859,1.55849,1.11816
1.63,0.106146,1.50455,0.73624,0.0707416,1.55728,1.11828
1.64,0.10239,1.50543,0.735195,0.0703002,1.55612,1.1184
1.65,0.0986935,1.50627,0.734188,0.0698601,1.55502,1.11852
1.66,0.0950517,1.50701,0.733218,0.0694082,1.55397,1.11862
1.67,0.0914673,1.50768,0.732284,0.0689591,1.55297,1.11871
1.68,0.0879441,1.50827,0.731386,0.068514,1.55203,1.11877
1.69,0.0844448,1.50878,0.730522,0.0680648,1.55114,1.11882
1.7,0.0810386,1.50921,0.729694,0.0676108,1.5503,1.11885
1.71,0.0776787,1.50957,0.728899,0.0671596,1.54952,1.11886
1.72,0.0743539,1.50986,0.728137,0.0667101,1.54879,1.11886
1.73,0.0710976,1.51007,0.727409,0.0662549,1.5481,1.11885
1.74,0.067918,1.51021,0.726712,0.0658053,1.54747,1.11882
1.75,0.0648011,1.5103,0.726047,0.0653599,1.54689,1.11877
1.76,0.0617399,1.51031,0.725414,0.06492,1.54636,1.11872
1.77,0.0587598,1.51028,0.72481,0.0645024,1.54587,1.11865
1.78,0.0558719,1.51021,0.724237,0.0641084,1.54544,1.11856
1.79,0.0530444,1.51008,0.723691,0.0637115,1.54505,1.11847
1.8,0.0502777,1.50989,0.723174,0.063324,1.54471,1.11836
1.81,0.0475698,1.50965,0.722684,0.0629402,1.54441,1.11824
1.82,0.044922,1.50934,0.722221,0.0625462,1.54415,1.11812
1.83,0.0423482,1.50897,0.721784,0.0621393,1.54393,1.11799
1.84,0.0398257,1.50853,0.721372,0.0617338,1.54376,1.11784
1.85,0.0373642,1.50805,0.720985,0.0613307,1.54362,1.11768
1.86,0.0349702,1.50749,0.720623,0.0609161,1.54353,1.11751
1.87,0.0326392,1.50688,0.720283,0.0605079,1.54347,1.11733
1.88,0.0303556,1.50623,0.719967,0.0601088,1.54345,1.11713
1.89,0.0281492,1.50554,0.719673,0.0597139,1.54347,1.11693
1.9,0.0260098,1.5048,0.719401,0.0593226,1.54352,1.11671
1.91,0.0238959,1.50401,0.71915,0.0589324,1.54361,1.11648
1.92,0.0218433,1.50317,0.71892,0.0585349,1.54373,1.11625
1.93,0.0198324,1.50228,0.71871,0.0581385,1.54388,1.116
1.94,0.0179074,1.50136,0.71852,0.0577525,1.54407,1.11575
1.95,0.0160252,1.50041,0.718349,0.0573758,1.54428,1.11548
1.96,0.0141875,1.49942,0.718197,0.0569983,1.54453,1.11522
1.97,0.0124148,1.49839,0.718063,0.0566233,1.54481,1.11494
1.98,0.010687,1.49733,0.717946,0.0562509,1.54511,1.11466
1.99,0.00901916,1.49625,0.717846,0.0558811,1.54544,1.11437
2,0.00742039,1.49512,0.717763,0.0555066,1.5458,1.11408
2.01,0.00585856,1.49397,0.717695,0.0551307,1.54618,1.11379
2.02,0.00436092,1.49278,0.717643,0.054759,1.54658,1.11348
2.03,0.00291384,1.49158,0.717605,0.0543925,1.54701,1.11318
2.04,0.00151331,1.49037,0.717582,0.0540385,1.54746,1.11287
2.05,0.000176736,1.48913,0.717572,0.0536902,1.54793,1.11256
2.06,-0.00110651,1.48787,0.717576,0.0533454,1.54842,1.11224
2.07,-0.00234734,1.48659,0.717592,0.0530037,1.54894,1.11192
2.08,-0.00352939,1.4853,0.71762,0.0526647,1.54947,1.1116
2.09,-0.00466685,1.48399,0.71766,0.0523294,1.55002,1.11128
2.1,-0.00575283,1.48267,0.717711,0.0520019,1.55058,1.11095
2.11,-0.00678311,1.48132,0.717773,0.0516718,1.55116,1.11062
2.12,-0.00775553,1.47997,0.717845,0.0513455,1.55176,1.11028
2.13,-0.00871012,1.47861,0.717926,0.0510241,1.55237,1.10995
2.14,-0.00960602,1.47723,0.718017,0.0507065,1.55299,1.10961
2.15,-0.0104554,1.47585,0.718116,0.0503932,1.55362,1.10927
2.16,-0.0112566,1.47446,0.718224,0.0500856,1.55426,1.10892
2.17,-0.0120225,1.47307,0.718339,0.0497826,1.55491,1.10858
2.18,-0.0127397,1.47167,0.718462,0.049484,1.55557,1.10823
2.19,-0.0134199,1.47027,0.718592,0.0491894,1.55624,1.10788
2.2,-0.0140411,1.46886,0.718729,0.0488988,1.55691,1.10753
2.21,-0.014628,1.46745,0.718871,0.0486123,1.5576,1.10718
2.22,-0.015177,1.46604,0.71902,0.0483296,1.55828,1.10683
2.23,-0.015685,1.46463,0.719173,0.0480498,1.55898,1.10648
2.24,-0.0161528,1.46322,0.719332,0.0477689,1.55968,1.10612
2.25,-0.0165804,1.4618,0.719495,0.0474911,1.56038,1.10577
2.26,-0.0169502,1.46039,0.719662,0.0472182,1.56108,1.10542
2.27,-0.0173171,1.45898,0.719833,0.0469496,1.56179,1.10507
2.28,-0.0176526,1.45758,0.720007,0.0466852,1.5625,1.10472
2.29,-0.0179549,1.4562,0.720184,0.0464247,1.5632,1.10437
2.3,-0.0182039,1.45482,0.720364,0.0461679,1.56391,1.10402
2.31,-0.018409,1.45344,0.720547,0.0459148,1.56462,1.10367
2.32,-0.0186204,1.45208,0.720731,0.0456654,1.56532,1.10333
2.33,-0.0187829,1.45072,0.720917,0.0454197,1.56602,1.10298
2.34,-0.0189171,1.44937,0.721105,0.045177,1.56672,1.10264
2.35,-0.0190158,1.44803,0.721294,0.0449377,1.56743,1.10231
2.36,-0.0190941,1.4467,0.721483,0.0447031,1.56813,1.10197
2.37,-0.0191332,1.44539,0.721674,0.0444716,1.56882,1.10164
2.38,-0.019159,1.44408,0.721864,0.0442432,1.56952,1.10131
2.39,-0.0191343,1.44278,0.722055,0.0440172,1.57021,1.10098
2.4,-0.0190877,1.44151,0.722245,0.0437943,1.57089,1.10066
2.41,-0.0190404,1.44025,0.722435,0.0435747,1.57157,1.10034
2.42,-0.0189465,1.439,0.722624,0.0433577,1.57223,1.10003
2.43,-0.018836,1.43777,0.722812,0.0431432,1.57289,1.09971
2.44,-0.018679,1.43656,0.722999,0.0429312,1.57354,1.09941
2.45,-0.0185034,1.43536,0.723184,0.0427217,1.57419,1.0991
2.46,-0.0183104,1.43418,0.723367,0.0425146,1.57482,1.0988
2.47,-0.0180972,1.43302,0.723549,0.042311,1.57545,1.09851
2.48,-0.017871,1.43188,0.723728,0.0421098,1.57607,1.09822
2.49,-0.0176067,1.43075,0.723905,0.0419108,1.57668,1.09793
2.5,-0.0173622,1.42965,0.724079,0.0417146,1.57728,1.09766
2.51,-0.017074,1.42856,0.72425,0.0415211,1.57787,1.09739
2.52,-0.0167929,1.42749,0.724419,0.0413301,1.57846,1.09712
2.53,-0.0164881,1.42644,0.724585,0.0411413,1.57903,1.09686
2.54,-0.0161754,1.42541,0.724747,0.0409553,1.5796,1.0966
2.55,-0.0158535,1.4244,0.724907,0.0407713,1.58015,1.09635
2.56,-0.0155033,1.42341,0.725063,0.0405905,1.5807,1.09611
2.57,-0.0151457,1.42245,0.725215,0.0404144,1.58124,1.09587
2.58,-0.0147811,1.4215,0.725364,0.0402418,1.58176,1.09563
2.59,-0.0143987,1.42057,0.72551,0.0400717,1.58227,1.09541
2.6,-0.0140095,1.41967,0.725651,0.0399041,1.58278,1.09518
2.61,-0.0136159,1.41878,0.725789,0.0397388,1.58327,1.09497
2.62,-0.0131996,1.41792,0.725922,0.0395757,1.58375,1.09476
2.63,-0.0127713,1.41708,0.726051,0.0394148,1.58422,1.09455
2.64,-0.0123618,1.41625,0.726177,0.0392561,1.58467,1.09435
2.65,-0.0119298,1.41545,0.726297,0.0390995,1.58512,1.09416
2.66,-0.0114825,1.41467,0.726414,0.0389429,1.58555,1.09397
2.67,-0.0110403,1.4139,0.726526,0.0387866,1.58597,1.09378
2.68,-0.0105877,1.41316,0.726634,0.0386316,1.58637,1.0936
2.69,-0.0101315,1.41244,0.726737,0.038478,1.58677,1.09343
2.7,-0.0096856,1.41173,0.726836,0.0383258,1.58715,1.09326
2.71,-0.00922831,1.41105,0.72693,0.0381755,1.58752,1.0931
2.72,-0.0087705,1.41039,0.727019,0.0380266,1.58787,1.09295
2.73,-0.0083053,1.40975,0.727104,0.0378792,1.58821,1.09279
2.74,-0.00784417,1.40913,0.727185,0.037733,1.58854,1.09265
2.75,-0.00737504,1.40854,0.72726,0.037588,1.58886,1.09251
2.76,-0.00691527,1.40796,0.727331,0.0374441,1.58916,1.09237
2.77,-0.00644553,1.4074,0.727398,0.0373012,1.58945,1.09225
2.78,-0.00597121,1.40686,0.727459,0.0371594,1.58973,1.09212
2.79,-0.00550437,1.40634,0.727516,0.0370186,1.58999,1.092
2.8,-0.00502976,1.40584,0.727569,0.0368789,1.59024,1.09189
2.81,-0.00455674,1.40536,0.727616,0.0367402,1.59048,1.09178
2.82,-0.00408722,1.40489,0.727659,0.0366025,1.59071,1.09168
2.83,-0.0036163,1.40445,0.727697,0.036466,1.59092,1.09158
2.84,-0.00315434,1.40403,0.727731,0.0363304,1.59112,1.09148
2.85,-0.00269307,1.40362,0.72776,0.0361958,1.5913,1.09139
2.86,-0.00222687,1.40323,0.727784,0.0360623,1.59148,1.0913
2.87,-0.00176229,1.40286,0.727804,0.0359299,1.59164,1.09122
2.88,-0.00131379,1.40251,0.727819,0.0357985,1.59179,1.09114
2.89,-0.000863935,1.40217,0.72783,0.0356683,1.59193,1.09107
2.9,-0.00041219,1.40185,0.727836,0.0355392,1.59205,1.091
2.91,2.86698e-05,1.40155,0.727837,0.0354112,1.59216,1.09093
