time,velocity,ratio,centerX,Xmax,Xmin,Ymax
0,0,1,6,5,7,1
0.01,0.0196666,0.999991,5.9999,4.99989,6.99991,1
0.02,0.0389491,1,5.99961,4.99961,6.99961,1
0.03,0.0578085,1.00004,5.99913,4.99916,6.9991,1.00001
0.04,0.0762279,1.00007,5.99846,4.99851,6.99841,1.00002
0.05,0.0942799,1.00009,5.99761,4.99767,6.99755,1.00003
0.06,0.111926,1.00012,5.99658,4.99665,6.99649,1.00004
0.07,0.129242,1.00014,5.99537,4.99547,6.99526,1.00004
0.08,0.146263,1.00016,5.994,4.99412,6.99387,1.00003
0.09,0.163014,1.00016,5.99245,4.99259,6.9923,1.00002
0.1,0.179569,1.00019,5.99074,4.9909,6.99058,1.00003
0.11,0.19609,1.00018,5.98887,4.98902,6.98874,1.00004
0.12,0.21226,1.00015,5.98682,4.98693,6.98677,1.00006
0.13,0.228129,1.00014,5.98462,4.98472,6.98459,1.00008
0.14,0.243623,1.00016,5.98227,4.98237,6.98221,1.00008
0.15,0.258811,1.00019,5.97976,4.9799,6.97963,1.00006
0.16,0.273645,1.00023,5.97709,4.9773,6.9769,1.00002
0.17,0.288331,1.00027,5.97428,4.97452,6.97405,1.00004
0.18,0.302928,1.00028,5.97133,4.97155,6.97112,1.00006
0.19,0.317241,1.00023,5.96823,4.96837,6.96811,1.00011
0.2,0.331229,1.00026,5.96499,4.96512,6.96486,1.00013
0.21,0.344807,1.00032,5.96161,4.9618,6.96139,1.00011
0.22,0.358314,1.00041,5.95809,4.95837,6.95779,1.00012
0.23,0.371774,1.00048,5.95445,4.95484,6.9541,1.00011
0.24,0.38485,1.00047,5.95066,4.95105,6.95037,1.00013
0.25,0.397397,1.00048,5.94675,4.9471,6.94644,1.00015
0.26,0.410014,1.00048,5.94272,4.94301,6.94239,1.00018
0.27,0.422749,1.00049,5.93855,4.93885,6.93822,1.00018
0.28,0.434996,1.00053,5.93427,4.93464,6.93393,1.00017
0.29,0.446939,1.00058,5.92986,4.93029,6.92945,1.00016
0.3,0.458827,1.00063,5.92533,4.92577,6.92486,1.00017
0.31,0.470624,1.00058,5.92068,4.92109,6.92028,1.00017
0.32,0.482056,1.00057,5.91592,4.91633,6.91557,1.00019
0.33,0.493462,1.00062,5.91105,4.91148,6.91066,1.00021
0.34,0.504789,1.00065,5.90605,4.9065,6.90564,1.00022
0.35,0.515751,1.00063,5.90095,4.90139,6.90054,1.0002
0.36,0.526528,1.00074,5.89574,4.89626,6.89522,1.00021
0.37,0.537305,1.0008,5.89042,4.891,6.88985,1.00023
0.38,0.547837,1.00073,5.885,4.88552,6.88454,1.00024
0.39,0.558156,1.0008,5.87947,4.88001,6.87894,1.00026
0.4,0.568489,1.00087,5.87384,4.87442,6.87324,1.00028
0.41,0.578571,1.00084,5.8681,4.86868,6.86756,1.00028
0.42,0.588706,1.00092,5.86227,4.86292,6.86165,1.00029
0.43,0.598486,1.00097,5.85633,4.85703,6.85569,1.00029
0.44,0.608014,1.00096,5.8503,4.85098,6.84967,1.0003
0.45,0.617716,1.00102,5.84417,4.84487,6.84348,1.00033
0.46,0.627012,1.00097,5.83795,4.8386,6.83732,1.00032
0.47,0.636164,1.00103,5.83163,4.83232,6.83095,1.00034
0.48,0.645305,1.00108,5.82523,4.82599,6.8245,1.00033
0.49,0.654204,1.00104,5.81873,4.81944,6.81804,1.00034
0.5,0.663052,1.00112,5.81214,4.81291,6.81136,1.00034
0.51,0.671674,1.00108,5.80547,4.80623,6.80476,1.00034
0.52,0.680369,1.00113,5.79871,4.79946,6.79797,1.00038
0.53,0.688832,1.00116,5.79187,4.7927,6.79111,1.00036
0.54,0.697167,1.00116,5.78494,4.78572,6.78418,1.0004
0.55,0.705528,1.00125,5.77792,4.77879,6.77707,1.00039
0.56,0.713606,1.00125,5.77083,4.77169,6.77,1.0004
0.57,0.721721,1.00131,5.76365,4.76454,6.76276,1.00042
0.58,0.729495,1.0013,5.7564,4.75732,6.75554,1.00041
0.59,0.737436,1.00134,5.74906,4.74994,6.74816,1.00045
0.6,0.745067,1.00136,5.74165,4.74261,6.74075,1.00043
0.61,0.752748,1.0014,5.73416,4.7351,6.73324,1.00047
0.62,0.76018,1.00139,5.7266,4.7276,6.72569,1.00044
0.63,0.767733,1.00146,5.71896,4.71996,6.718,1.00048
0.64,0.775096,1.00144,5.71125,4.71226,6.7103,1.00046
0.65,0.782384,1.0015,5.70346,4.70447,6.70246,1.00049
0.66,0.789357,1.00146,5.6956,4.69662,6.69463,1.00047
0.67,0.796521,1.00153,5.68767,4.68871,6.68666,1.00051
0.68,0.803412,1.0015,5.67967,4.68073,6.67867,1.00048
0.69,0.81037,1.00157,5.6716,4.67267,6.67058,1.00052
0.7,0.817237,1.00154,5.66347,4.66454,6.66244,1.00049
0.71,0.824065,1.00161,5.65526,4.65635,6.6542,1.00054
0.72,0.830612,1.0016,5.64699,4.6481,6.64594,1.00052
0.73,0.837294,1.00168,5.63865,4.63979,6.63754,1.00055
0.74,0.843576,1.00167,5.63024,4.6314,6.62916,1.00054
0.75,0.850036,1.00174,5.62178,4.62296,6.6206,1.00056
0.76,0.856348,1.00174,5.61324,4.61444,6.61211,1.00057
0.77,0.862568,1.00178,5.60465,4.60587,6.60346,1.00058
0.78,0.868753,1.0018,5.59599,4.59723,6.59482,1.00059
0.79,0.874793,1.00182,5.58728,4.58853,6.58606,1.00058
0.8,0.880851,1.00186,5.5785,4.57978,6.57728,1.00061
0.81,0.886636,1.00184,5.56966,4.57095,6.56844,1.00059
0.82,0.892661,1.00191,5.56077,4.56207,6.55951,1.00063
0.83,0.898384,1.00188,5.55181,4.55311,6.55059,1.00062
0.84,0.904125,1.00194,5.5428,4.54412,6.54151,1.00063
0.85,0.909816,1.00193,5.53373,4.53505,6.53248,1.00064
0.86,0.915455,1.00196,5.5246,4.52595,6.5233,1.00063
0.87,0.921091,1.00199,5.51542,4.51679,6.51413,1.00066
0.88,0.926359,1.00199,5.50618,4.50756,6.50487,1.00064
0.89,0.931889,1.00205,5.49689,4.49828,6.49552,1.00067
0.9,0.937115,1.00205,5.48755,4.48897,6.48622,1.00067
0.91,0.942318,1.00209,5.47815,4.4796,6.47677,1.00067
0.92,0.947681,1.00211,5.4687,4.47015,6.46734,1.0007
0.93,0.9528,1.00212,5.4592,4.46065,6.45781,1.00069
0.94,0.957923,1.00217,5.44965,4.45112,6.44821,1.00071
0.95,0.962923,1.00217,5.44004,4.44154,6.43863,1.00072
0.96,0.967859,1.00219,5.43039,4.4319,6.42892,1.0007
0.97,0.972828,1.00222,5.42069,4.42222,6.41925,1.00073
0.98,0.977654,1.00221,5.41093,4.41245,6.40949,1.00073
0.99,0.982489,1.00224,5.40113,4.40266,6.39964,1.00073
1,0.987299,1.00225,5.39128,4.39283,6.38983,1.00075
1.01,0.991963,1.00226,5.38139,4.38296,6.37991,1.00073
1.02,0.996636,1.0023,5.37144,4.37302,6.36992,1.00075
1.03,1.00121,1.0023,5.36146,4.36304,6.35997,1.00076
1.04,1.00566,1.00232,5.35142,4.35303,6.34989,1.00074
1.05,1.01023,1.00234,5.34134,4.34295,6.33983,1.00078
1.06,1.01463,1.00235,5.33122,4.33282,6.3297,1.00078
1.07,1.01902,1.00239,5.32105,4.32271,6.31947,1.00076
1.08,1.0235,1.00241,5.31084,4.31249,6.30927,1.0008
1.09,1.02755,1.00242,5.30058,4.30224,6.299,1.0008
1.1,1.03175,1.00245,5.29029,4.29198,6.28866,1.00079
1.11,1.03614,1.00246,5.27995,4.28162,6.27835,1.00082
1.12,1.04025,1.00246,5.26957,4.27123,6.26796,1.00082
1.13,1.04429,1.00249,5.25914,4.26086,6.2575,1.00081
1.14,1.04854,1.00251,5.24868,4.2504,6.24705,1.00083
1.15,1.05241,1.00252,5.23817,4.23992,6.23654,1.00083
1.16,1.05628,1.00255,5.22763,4.22942,6.22596,1.00082
1.17,1.06038,1.00257,5.21705,4.21881,6.21539,1.00085
1.18,1.06426,1.00258,5.20642,4.20819,6.20476,1.00086
1.19,1.06803,1.0026,5.19576,4.19757,6.19405,1.00084
1.2,1.0719,1.00262,5.18506,4.18685,6.18336,1.00087
1.21,1.07557,1.00263,5.17433,4.17612,6.17261,1.00087
1.22,1.07917,1.00265,5.16355,4.16539,6.16179,1.00085
1.23,1.08288,1.00266,5.15274,4.15456,6.15101,1.00088
1.24,1.08647,1.00267,5.1419,4.14372,6.14018,1.00089
1.25,1.08997,1.00269,5.13101,4.13289,6.12927,1.00088
1.26,1.09355,1.00271,5.1201,4.12195,6.11833,1.00089
1.27,1.09713,1.00272,5.10914,4.11102,6.10741,1.00091
1.28,1.1006,1.00274,5.09815,4.10006,6.09638,1.0009
1.29,1.10406,1.00275,5.08713,4.08903,6.08531,1.00089
1.3,1.1075,1.00276,5.07607,4.07796,6.07429,1.00092
1.31,1.11092,1.00277,5.06498,4.06688,6.0632,1.00092
1.32,1.11415,1.00279,5.05386,4.05577,6.05201,1.0009
1.33,1.11751,1.00279,5.0427,4.04458,6.04087,1.00093
1.34,1.1209,1.00281,5.03151,4.03341,6.02969,1.00094
1.35,1.12405,1.00283,5.02028,4.02222,6.01843,1.00093
1.36,1.12717,1.00283,5.00903,4.01097,6.00717,1.00092
1.37,1.13042,1.00286,4.99774,3.99971,5.9959,1.00095
1.38,1.1334,1.00289,4.98642,3.98842,5.98457,1.00096
1.39,1.13647,1.00291,4.97507,3.97709,5.97317,1.00094
1.4,1.13946,1.00292,4.96369,3.96569,5.96179,1.00097
1.41,1.14251,1.00296,4.95228,3.95431,5.95038,1.00099
1.42,1.14541,1.00298,4.94084,3.94289,5.93892,1.00098
1.43,1.14829,1.00298,4.92937,3.93142,5.92741,1.00096
1.44,1.15112,1.00299,4.91788,3.91992,5.91594,1.00099
1.45,1.15395,1.00301,4.90635,3.90842,5.90441,1.001
1.46,1.15677,1.00302,4.8948,3.89688,5.89284,1.00099
1.47,1.15948,1.003,4.88322,3.88529,5.88126,1.00098
1.48,1.16224,1.00303,4.87161,3.8737,5.86967,1.00101
1.49,1.16488,1.00304,4.85997,3.86208,5.85804,1.00101
1.5,1.16758,1.00306,4.84831,3.85044,5.84634,1.001
1.51,1.17027,1.00304,4.83662,3.83871,5.83463,1.00099
1.52,1.17299,1.00307,4.82491,3.82702,5.82293,1.00102
1.53,1.17558,1.00308,4.81316,3.81528,5.81118,1.00102
1.54,1.17814,1.00309,4.8014,3.80352,5.79939,1.00102
1.55,1.18065,1.00308,4.7896,3.79171,5.78757,1.00101
1.56,1.18332,1.00311,4.77778,3.77991,5.77577,1.00103
1.57,1.18581,1.00312,4.76594,3.76808,5.76393,1.00104
1.58,1.18823,1.00315,4.75407,3.75625,5.75204,1.00104
1.59,1.19064,1.00315,4.74217,3.74436,5.74012,1.00102
1.6,1.19307,1.00318,4.73025,3.73247,5.72822,1.00105
1.61,1.19544,1.0032,4.71831,3.72052,5.71627,1.00106
1.62,1.19785,1.00322,4.70634,3.70856,5.70427,1.00106
1.63,1.20011,1.00322,4.69435,3.69657,5.69226,1.00105
1.64,1.20244,1.00323,4.68234,3.68457,5.68026,1.00107
1.65,1.20469,1.00325,4.67031,3.67255,5.66822,1.00108
1.66,1.20686,1.00327,4.65825,3.6605,5.65614,1.00108
1.67,1.20921,1.00326,4.64617,3.64841,5.64404,1.00107
1.68,1.21143,1.00325,4.63407,3.6363,5.63195,1.00107
1.69,1.21365,1.00327,4.62194,3.62421,5.61985,1.00109
1.7,1.21584,1.00328,4.60979,3.61207,5.60771,1.00109
1.71,1.21808,1.00329,4.59762,3.5999,5.59551,1.00108
1.72,1.22025,1.00327,4.58543,3.58768,5.58329,1.00107
1.73,1.22243,1.00329,4.57322,3.57549,5.5711,1.00109
1.74,1.22461,1.0033,4.56098,3.56326,5.55887,1.0011
1.75,1.22673,1.0033,4.54873,3.551,5.54661,1.0011
1.76,1.22886,1.0033,4.53645,3.53869,5.53429,1.00109
1.77,1.23101,1.00329,4.52415,3.52638,5.52198,1.00109
1.78,1.2331,1.00333,4.51183,3.51412,5.50969,1.00111
1.79,1.23509,1.00335,4.49949,3.5018,5.49735,1.00112
1.8,1.23696,1.00338,4.48713,3.48948,5.48497,1.00112
1.81,1.23886,1.0034,4.47475,3.47711,5.47254,1.00111
1.82,1.24068,1.00342,4.46235,3.46471,5.46014,1.00112
1.83,1.24265,1.00345,4.44994,3.45233,5.44775,1.00115
1.84,1.24442,1.00347,4.4375,3.4399,5.4353,1.00116
1.85,1.24619,1.00348,4.42505,3.42745,5.42281,1.00116
1.86,1.24794,1.00349,4.41258,3.41497,5.41029,1.00114
1.87,1.24974,1.00349,4.40009,3.40249,5.39781,1.00115
1.88,1.25157,1.0035,4.38758,3.39,5.38534,1.00116
1.89,1.25324,1.00349,4.37506,3.37747,5.37284,1.00117
1.9,1.25495,1.00349,4.36252,3.36494,5.36031,1.00116
1.91,1.25669,1.00348,4.34996,3.35237,5.34772,1.00115
1.92,1.25836,1.00347,4.33738,3.33979,5.33515,1.00114
1.93,1.26016,1.00348,4.32479,3.32721,5.32258,1.00116
1.94,1.26185,1.00348,4.31218,3.3146,5.30996,1.00116
1.95,1.26349,1.00349,4.29956,3.30197,5.29732,1.00116
1.96,1.26516,1.0035,4.28691,3.28931,5.28464,1.00115
1.97,1.26681,1.00349,4.27425,3.27665,5.27198,1.00115
1.98,1.26847,1.00352,4.26158,3.264,5.25932,1.00117
1.99,1.27006,1.00355,4.24888,3.25133,5.24662,1.00118
2,1.27155,1.00357,4.23618,3.23866,5.2339,1.00119
2.01,1.27296,1.0036,4.22345,3.22596,5.22114,1.00119
2.02,1.27442,1.0036,4.21072,3.21322,5.20839,1.00118
2.03,1.27593,1.00363,4.19796,3.2005,5.19567,1.0012
2.04,1.27743,1.00365,4.1852,3.18773,5.18289,1.00122
2.05,1.27907,1.00365,4.17242,3.17493,5.1701,1.00122
2.06,1.28052,1.00366,4.15962,3.16213,5.15726,1.00121
2.07,1.28192,1.00365,4.14681,3.14931,5.14442,1.0012
2.08,1.28329,1.00363,4.13398,3.13649,5.13163,1.00119
2.09,1.28457,1.00363,4.12114,3.12366,5.11884,1.0012
2.1,1.28597,1.00362,4.10829,3.1108,5.10601,1.00121
2.11,1.28726,1.00362,4.09542,3.09792,5.09312,1.00121
2.12,1.28837,1.00362,4.08254,3.08504,5.08022,1.0012
2.13,1.2899,1.00361,4.06965,3.07216,5.06733,1.00119
2.14,1.29145,1.00361,4.05675,3.05927,5.05444,1.00119
2.15,1.2928,1.00362,4.04383,3.04633,5.04152,1.00121
2.16,1.29425,1.00364,4.03089,3.03338,5.02856,1.00122
2.17,1.29572,1.00365,4.01794,3.02042,5.01558,1.00122
2.18,1.29695,1.00366,4.00498,3.00748,5.0026,1.00122
2.19,1.29822,1.00367,3.992,2.99454,4.98963,1.00121
2.2,1.29939,1.0037,3.97901,2.98161,4.97666,1.00122
2.21,1.30066,1.00373,3.96601,2.96861,4.96365,1.00124
2.22,1.30185,1.00374,3.953,2.9556,4.95063,1.00125
2.23,1.30301,1.00377,3.93998,2.94259,4.93759,1.00126
2.24,1.30416,1.00378,3.92694,2.92957,4.92454,1.00125
2.25,1.30525,1.00377,3.91389,2.91652,4.91147,1.00124
2.26,1.30644,1.00379,3.90084,2.90347,4.89841,1.00125
2.27,1.30761,1.0038,3.88776,2.89038,4.88533,1.00126
2.28,1.30865,1.00379,3.87468,2.87729,4.87226,1.00126
2.29,1.3097,1.00379,3.86159,2.86422,4.85919,1.00126
2.3,1.31085,1.00378,3.84849,2.85112,4.84607,1.00125
2.31,1.31194,1.00376,3.83538,2.83799,4.83296,1.00124
2.32,1.31308,1.00376,3.82225,2.82487,4.81987,1.00124
2.33,1.31415,1.00376,3.80911,2.81174,4.80674,1.00125
2.34,1.31529,1.00376,3.79597,2.79859,4.7936,1.00125
2.35,1.31635,1.00377,3.78281,2.78542,4.7804,1.00125
2.36,1.31738,1.00378,3.76964,2.77224,4.76721,1.00125
2.37,1.31853,1.00378,3.75646,2.75906,4.75402,1.00125
2.38,1.31948,1.00379,3.74327,2.7459,4.74084,1.00125
2.39,1.3204,1.00382,3.73007,2.73274,4.72766,1.00127
2.4,1.32136,1.00385,3.71686,2.71954,4.71442,1.00128
2.41,1.32227,1.00387,3.70364,2.70632,4.70118,1.00129
2.42,1.3232,1.00389,3.69042,2.69312,4.68794,1.00129
2.43,1.32415,1.0039,3.67718,2.6799,4.6747,1.00129
2.44,1.32503,1.00388,3.66393,2.66665,4.66145,1.00128
2.45,1.32603,1.00389,3.65068,2.65339,4.6482,1.00129
2.46,1.32708,1.0039,3.63741,2.6401,4.63492,1.0013
2.47,1.32795,1.00388,3.62414,2.62681,4.62166,1.0013
2.48,1.32892,1.00388,3.61085,2.61355,4.6084,1.00129
2.49,1.32979,1.00387,3.59756,2.60025,4.59509,1.00129
2.5,1.3307,1.00386,3.58426,2.58693,4.58178,1.00127
2.51,1.33176,1.00383,3.57094,2.57361,4.56849,1.00126
2.52,1.3327,1.00383,3.55762,2.56028,4.55519,1.00127
2.53,1.33359,1.00384,3.54429,2.54696,4.54187,1.00128
2.54,1.33477,1.00384,3.53095,2.5336,4.5285,1.00129
2.55,1.33558,1.00385,3.5176,2.52023,4.51513,1.00129
2.56,1.33649,1.00387,3.50424,2.50689,4.50174,1.00129
2.57,1.33719,1.00389,3.49087,2.49356,4.48837,1.00128
2.58,1.33793,1.00391,3.47749,2.48023,4.47501,1.00128
2.59,1.33867,1.00394,3.46411,2.46687,4.46162,1.0013
2.6,1.33944,1.00397,3.45072,2.45349,4.44821,1.00132
2.61,1.34006,1.00399,3.43732,2.4401,4.43481,1.00134
2.62,1.3407,1.00402,3.42392,2.42672,4.4214,1.00134
2.63,1.34137,1.00404,3.41051,2.41332,4.40794,1.00134
2.64,1.34182,1.00404,3.39709,2.39989,4.39449,1.00133
2.65,1.34235,1.00403,3.38367,2.38646,4.38108,1.00132
2.66,1.34298,1.00401,3.37024,2.37303,4.36768,1.00133
2.67,1.34362,1.00399,3.35681,2.35959,4.3543,1.00133
2.68,1.34427,1.00399,3.34337,2.34614,4.34086,1.00133
2.69,1.3448,1.00398,3.32993,2.33269,4.32741,1.00133
2.7,1.34543,1.00396,3.31648,2.31924,4.31396,1.00132
2.71,1.34605,1.00394,3.30302,2.30578,4.30051,1.0013
2.72,1.34665,1.00392,3.28955,2.29231,4.28706,1.00129
2.73,1.34735,1.00393,3.27608,2.27883,4.2736,1.0013
2.74,1.34796,1.00393,3.26261,2.26533,4.26011,1.00131
2.75,1.34771,1.00395,3.24913,2.25185,4.24661,1.00132
2.76,1.34788,1.00399,3.23565,2.23842,4.23312,1.00133
2.77,1.34829,1.00403,3.22217,2.22497,4.21961,1.00133
2.78,1.34872,1.00405,3.20869,2.21151,4.2061,1.00134
2.79,1.34915,1.00405,3.1952,2.19804,4.19262,1.00133
2.8,1.34966,1.00407,3.1817,2.18457,4.17915,1.00135
2.81,1.35005,1.00408,3.1682,2.17107,4.16565,1.00136
2.82,1.35059,1.00409,3.1547,2.15755,4.15212,1.00137
2.83,1.35103,1.0041,3.14119,2.14404,4.13859,1.00137
2.84,1.35147,1.0041,3.12768,2.13051,4.12506,1.00136
2.85,1.3519,1.00408,3.11416,2.117,4.11157,1.00135
2.86,1.35227,1.00405,3.10064,2.10347,4.09807,1.00133
2.87,1.35285,1.00402,3.08712,2.08994,4.08457,1.00133
2.88,1.35342,1.00401,3.07359,2.07639,4.07106,1.00133
2.89,1.35407,1.00399,3.06005,2.06283,4.05753,1.00134
2.9,1.35446,1.00399,3.04651,2.04928,4.044,1.00134
2.91,1.35506,1.004,3.03296,2.03574,4.03042,1.00133
2.92,1.35555,1.00401,3.01941,2.02217,4.01684,1.00133
2.93,1.35608,1.00401,3.00585,2.00861,4.00326,1.00133
2.94,1.35631,1.00401,2.99228,1.99507,3.98971,1.00132
2.95,1.3566,1.00403,2.97872,1.98155,3.97618,1.00134
2.96,1.35681,1.00407,2.96515,1.968,3.96259,1.00135
2.97,1.35706,1.0041,2.95158,1.95445,3.94901,1.00137
2.98,1.35729,1.00415,2.93801,1.94091,3.93541,1.00138
2.99,1.35747,1.00417,2.92444,1.92737,3.92182,1.00139
3,1.35763,1.00419,2.91086,1.9138,3.90822,1.00139
3.01,1.35786,1.00419,2.89728,1.90021,3.89461,1.00138
3.02,1.35804,1.00419,2.8837,1.88663,3.88103,1.00138
3.03,1.35825,1.00418,2.87012,1.87303,3.86747,1.00138
3.04,1.35846,1.00416,2.85654,1.85945,3.85393,1.00139
3.05,1.35851,1.00415,2.84295,1.84586,3.84035,1.00139
3.06,1.3587,1.00415,2.82937,1.83228,3.82677,1.00138
3.07,1.35895,1.00413,2.81578,1.81868,3.81318,1.00137
3.08,1.35919,1.00411,2.80219,1.80509,3.7996,1.00136
3.09,1.35942,1.00409,2.7886,1.79148,3.78602,1.00134
3.1,1.35968,1.00408,2.775,1.77788,3.77243,1.00135
3.11,1.3598,1.00409,2.7614,1.76426,3.75882,1.00136
3.12,1.35993,1.0041,2.74781,1.75066,3.74521,1.00137
3.13,1.35985,1.00412,2.73421,1.73709,3.73162,1.00138
3.14,1.35996,1.00416,2.72061,1.72352,3.71799,1.00138
3.15,1.3597,1.00419,2.70701,1.70995,3.70437,1.00139
3.16,1.3597,1.00421,2.69341,1.69638,3.69076,1.00139
3.17,1.35972,1.00421,2.67982,1.6828,3.67716,1.00138
3.18,1.35973,1.00423,2.66622,1.66922,3.66358,1.0014
3.19,1.35974,1.00425,2.65262,1.65561,3.64996,1.00141
3.2,1.35974,1.00426,2.63902,1.642,3.63635,1.00142
3.21,1.35974,1.00426,2.62543,1.6284,3.62273,1.00142
3.22,1.35969,1.00425,2.61183,1.61481,3.60915,1.00141
3.23,1.35976,1.00424,2.59823,1.60121,3.59555,1.0014
3.24,1.35981,1.00421,2.58463,1.58759,3.58197,1.00139
3.25,1.35977,1.00417,2.57104,1.57398,3.56841,1.00137
3.26,1.35973,1.00415,2.55744,1.56037,3.55484,1.00138
3.27,1.35981,1.00415,2.54384,1.54677,3.54126,1.00138
3.28,1.36002,1.00415,2.53024,1.53315,3.52764,1.00139
3.29,1.35988,1.00415,2.51664,1.51954,3.51403,1.00139
3.3,1.35975,1.00417,2.50304,1.50595,3.5004,1.00139
3.31,1.35952,1.0042,2.48945,1.4924,3.48679,1.00138
3.32,1.35895,1.00421,2.47586,1.47884,3.47321,1.00138
3.33,1.35843,1.00423,2.46227,1.46528,3.45962,1.00139
3.34,1.35823,1.00428,2.44868,1.45172,3.44602,1.00142
3.35,1.358,1.00432,2.4351,1.43817,3.43242,1.00144
3.36,1.3576,1.00435,2.42153,1.42461,3.41884,1.00145
3.37,1.35724,1.00439,2.40795,1.41106,3.40521,1.00146
3.38,1.35687,1.00441,2.39438,1.39749,3.3916,1.00146
3.39,1.35655,1.00441,2.38081,1.38391,3.37802,1.00145
3.4,1.35613,1.00437,2.36725,1.37034,3.36449,1.00143
3.41,1.35538,1.00435,2.35369,1.35679,3.35099,1.00144
3.42,1.35507,1.00434,2.34014,1.34323,3.33745,1.00144
3.43,1.35461,1.00432,2.32659,1.32966,3.32392,1.00144
3.44,1.35418,1.00431,2.31305,1.31612,3.31038,1.00143
3.45,1.35366,1.00431,2.29951,1.30259,3.29684,1.00142
3.46,1.35329,1.00431,2.28597,1.28905,3.28329,1.00142
3.47,1.35279,1.00429,2.27244,1.2755,3.26976,1.00141
3.48,1.35233,1.00428,2.25892,1.26197,3.25624,1.00141
3.49,1.35174,1.0043,2.2454,1.24845,3.24271,1.00142
3.5,1.35098,1.00433,2.23188,1.23498,3.22921,1.00143
3.51,1.35014,1.00437,2.21838,1.22149,3.21567,1.00144
3.52,1.34951,1.00441,2.20488,1.20803,3.20214,1.00146
3.53,1.34882,1.00445,2.19139,1.19457,3.18863,1.00146
3.54,1.34803,1.00446,2.1779,1.18111,3.17514,1.00146
3.55,1.34724,1.00446,2.16443,1.16765,3.16167,1.00145
3.56,1.34647,1.00447,2.15096,1.15418,3.1482,1.00147
3.57,1.34552,1.00449,2.1375,1.14072,3.13472,1.00148
3.58,1.34471,1.0045,2.12405,1.12726,3.12126,1.00149
3.59,1.3437,1.0045,2.1106,1.11384,3.10784,1.00148
3.6,1.34289,1.0045,2.09717,1.10041,3.0944,1.00148
3.61,1.34195,1.00449,2.08375,1.08698,3.08097,1.00147
3.62,1.34088,1.00446,2.07033,1.07356,3.06758,1.00145
3.63,1.33997,1.00445,2.05693,1.06016,3.05421,1.00146
3.64,1.33868,1.00446,2.04353,1.04678,3.04083,1.00146
3.65,1.33769,1.00447,2.03015,1.03339,3.02743,1.00147
3.66,1.33652,1.00449,2.01678,1.02003,3.01403,1.00147
3.67,1.33537,1.00451,2.00342,1.00668,3.00065,1.00148
3.68,1.33409,1.00453,1.99007,0.993365,2.98729,1.00148
3.69,1.33267,1.00454,1.97674,0.980062,2.97396,1.00147
3.7,1.33133,1.00457,1.96342,0.966762,2.96063,1.00149
3.71,1.32993,1.00461,1.95011,0.95348,2.94731,1.00151
3.72,1.32849,1.00464,1.93682,0.940209,2.93401,1.00152
3.73,1.32693,1.00467,1.92354,0.926969,2.92072,1.00153
3.74,1.32545,1.0047,1.91028,0.91373,2.90743,1.00153
3.75,1.32362,1.0047,1.89704,0.900487,2.89416,1.00153
3.76,1.32189,1.0047,1.88381,0.887272,2.88094,1.00152
3.77,1.32031,1.00471,1.8706,0.874069,2.86775,1.00154
3.78,1.31849,1.00472,1.8574,0.860901,2.85458,1.00154
3.79,1.31677,1.00474,1.84423,0.847736,2.84138,1.00155
