time,velocity,ratio,centerX,Xmax,Xmin,Ymax
0,0,1,1.5,0.5,2.5,1
0.01,0.017625,1.00002,1.49992,0.499933,2.49991,1
0.02,0.0348617,1.00007,1.49966,0.499732,2.49963,1.00001
0.03,0.0517065,1.00015,1.49923,0.499398,2.49916,1.00003
0.04,0.0681867,1.00026,1.49864,0.498936,2.49852,1.00005
0.05,0.0841641,1.00041,1.49788,0.498348,2.4977,1.00008
0.06,0.0997511,1.00058,1.49697,0.497643,2.49672,1.00012
0.07,0.115019,1.00079,1.4959,0.496825,2.49557,1.00016
0.08,0.130165,1.00104,1.49468,0.495899,2.49426,1.00021
0.09,0.144791,1.00131,1.49331,0.494859,2.49279,1.00027
0.1,0.159104,1.00162,1.4918,0.493708,2.49117,1.00035
0.11,0.173301,1.00197,1.49014,0.49245,2.4894,1.00044
0.12,0.187029,1.00235,1.48834,0.491085,2.48748,1.00055
0.13,0.200658,1.00276,1.48641,0.489612,2.48542,1.00066
0.14,0.213614,1.0032,1.48434,0.488049,2.48322,1.00078
0.15,0.226415,1.00368,1.48215,0.486403,2.48086,1.0009
0.16,0.239184,1.00422,1.47983,0.484665,2.47833,1.00103
0.17,0.251725,1.0048,1.47738,0.48283,2.47563,1.00118
0.18,0.263788,1.00544,1.4748,0.480896,2.47279,1.00136
0.19,0.275552,1.00612,1.47211,0.478878,2.4698,1.00155
0.2,0.286993,1.00683,1.4693,0.476774,2.46667,1.00175
0.21,0.29841,1.0076,1.46638,0.474596,2.46337,1.00195
0.22,0.309461,1.00842,1.46334,0.472344,2.45992,1.00215
0.23,0.320163,1.00932,1.4602,0.470022,2.45634,1.00241
0.24,0.330826,1.01024,1.45695,0.467627,2.45264,1.00267
0.25,0.340864,1.01121,1.45359,0.465151,2.4488,1.00294
0.26,0.350481,1.01222,1.45014,0.462607,2.44481,1.00321
0.27,0.360279,1.01331,1.44659,0.459998,2.44069,1.00352
0.28,0.369901,1.01443,1.44294,0.457332,2.43649,1.00386
0.29,0.37929,1.01562,1.4392,0.45461,2.43211,1.00419
0.3,0.388236,1.01686,1.43536,0.451831,2.42757,1.00453
0.31,0.397123,1.01814,1.43144,0.448972,2.42298,1.0049
0.32,0.40545,1.01943,1.42743,0.446043,2.41834,1.0053
0.33,0.413912,1.02078,1.42334,0.443056,2.41351,1.0057
0.34,0.42191,1.02218,1.41916,0.44001,2.40853,1.0061
0.35,0.42979,1.02367,1.41491,0.436912,2.40348,1.00656
0.36,0.437298,1.02523,1.41057,0.433791,2.39827,1.00702
0.37,0.444745,1.02682,1.40617,0.430602,2.39291,1.00747
0.38,0.452045,1.02846,1.40169,0.42739,2.38751,1.00796
0.39,0.458996,1.03019,1.39713,0.424117,2.38196,1.00847
0.4,0.46586,1.03196,1.39251,0.42082,2.37628,1.00898
0.41,0.472185,1.03374,1.38782,0.417473,2.37058,1.0095
0.42,0.478688,1.03567,1.38307,0.41408,2.36463,1.01007
0.43,0.484943,1.03757,1.37825,0.410651,2.35872,1.01063
0.44,0.490864,1.03944,1.37338,0.407203,2.35283,1.01118
0.45,0.496708,1.04148,1.36844,0.403726,2.34674,1.01181
0.46,0.502196,1.04354,1.36345,0.400211,2.34056,1.01242
0.47,0.507624,1.04566,1.3584,0.396681,2.33424,1.01301
0.48,0.512685,1.04792,1.35331,0.393141,2.32778,1.01367
0.49,0.517638,1.05017,1.34816,0.389593,2.32132,1.01432
0.5,0.521673,1.05248,1.34296,0.385986,2.31468,1.01496
0.51,0.526148,1.05482,1.33772,0.382327,2.30808,1.01566
0.52,0.530517,1.05723,1.33244,0.378622,2.30126,1.01634
0.53,0.53457,1.0596,1.32712,0.37488,2.29449,1.01701
0.54,0.53855,1.06204,1.32175,0.371162,2.28774,1.01774
0.55,0.542462,1.06457,1.31635,0.367436,2.28082,1.01846
0.56,0.546017,1.06709,1.31091,0.363715,2.2739,1.01917
0.57,0.549624,1.06977,1.30543,0.359956,2.2668,1.01994
0.58,0.552981,1.0724,1.29992,0.356195,2.25975,1.02069
0.59,0.55604,1.07512,1.29438,0.352403,2.25255,1.02144
0.6,0.559126,1.07787,1.2888,0.348594,2.24537,1.02224
0.61,0.561883,1.0807,1.2832,0.3448,2.23803,1.02301
0.62,0.564406,1.08352,1.27757,0.341006,2.23079,1.02381
0.63,0.56692,1.08632,1.27192,0.337192,2.22361,1.02463
0.64,0.569296,1.08919,1.26624,0.333388,2.21629,1.02542
0.65,0.571308,1.09215,1.26054,0.329608,2.20896,1.02626
0.66,0.573328,1.0952,1.25481,0.32584,2.20148,1.0271
0.67,0.575216,1.09818,1.24907,0.322031,2.19406,1.02792
0.68,0.576716,1.10131,1.24331,0.31821,2.18652,1.0288
0.69,0.578194,1.10439,1.23754,0.314391,2.17904,1.02965
0.7,0.579487,1.10758,1.23175,0.310594,2.17142,1.03051
0.71,0.580285,1.11071,1.22596,0.306814,2.16401,1.0314
0.72,0.581414,1.1139,1.22015,0.303055,2.15647,1.03226
0.73,0.582397,1.11712,1.21433,0.299295,2.14898,1.03316
0.74,0.583265,1.12045,1.2085,0.295574,2.14136,1.03405
0.75,0.58395,1.12372,1.20267,0.291843,2.13382,1.03493
0.76,0.584303,1.12711,1.19683,0.288107,2.12619,1.03587
0.77,0.584674,1.13046,1.19098,0.284414,2.11864,1.03676
0.78,0.584967,1.13395,1.18514,0.28076,2.11098,1.03769
0.79,0.585066,1.13734,1.17929,0.277107,2.10351,1.03862
0.8,0.585033,1.14071,1.17344,0.273473,2.09605,1.03952
0.81,0.584902,1.14422,1.16759,0.269888,2.08857,1.04049
0.82,0.584632,1.14776,1.16174,0.26635,2.08104,1.04142
0.83,0.584183,1.15134,1.1559,0.262832,2.07351,1.04236
0.84,0.583552,1.15494,1.15006,0.259284,2.06599,1.04332
0.85,0.582845,1.15851,1.14423,0.255744,2.05848,1.04425
0.86,0.582077,1.16218,1.1384,0.252227,2.05097,1.04523
0.87,0.581203,1.16583,1.13259,0.248744,2.04349,1.04619
0.88,0.58022,1.16944,1.12678,0.24532,2.03615,1.04713
0.89,0.579133,1.17316,1.12099,0.241925,2.02875,1.04812
0.9,0.577805,1.17682,1.1152,0.238542,2.02141,1.04906
0.91,0.576253,1.18062,1.10943,0.235217,2.01401,1.05004
0.92,0.574779,1.18438,1.10368,0.231921,2.00672,1.05102
0.93,0.57321,1.18817,1.09794,0.228613,1.99937,1.05197
0.94,0.571684,1.192,1.09221,0.225359,1.9921,1.05298
0.95,0.569841,1.19588,1.08651,0.222156,1.98476,1.05393
0.96,0.567933,1.1997,1.08082,0.21899,1.97765,1.05493
0.97,0.565822,1.20353,1.07515,0.215849,1.97056,1.05592
0.98,0.563696,1.20735,1.0695,0.212729,1.96347,1.05688
0.99,0.561472,1.21129,1.06388,0.209651,1.95638,1.0579
1,0.559107,1.21522,1.05827,0.206618,1.9493,1.05887
1.01,0.556633,1.21919,1.05269,0.203635,1.94227,1.05986
1.02,0.554053,1.2232,1.04714,0.200683,1.93525,1.06086
1.03,0.551105,1.22712,1.04162,0.197721,1.9283,1.06182
1.04,0.548312,1.23118,1.03612,0.19478,1.92132,1.06284
1.05,0.545486,1.23508,1.03065,0.191872,1.91454,1.06381
1.06,0.542474,1.23905,1.02521,0.189009,1.90774,1.0648
1.07,0.539386,1.24307,1.0198,0.186211,1.90099,1.06579
1.08,0.536171,1.24709,1.01442,0.183476,1.89426,1.06675
1.09,0.532951,1.25122,1.00908,0.180798,1.88755,1.06776
1.1,0.529645,1.25529,1.00377,0.178135,1.88092,1.06874
1.11,0.526128,1.25943,0.998486,0.175561,1.87429,1.06971
1.12,0.522515,1.26359,0.993242,0.173027,1.86775,1.07072
1.13,0.518902,1.26778,0.988035,0.170538,1.86118,1.07168
1.14,0.515194,1.27191,0.982865,0.168086,1.85479,1.07267
1.15,0.511396,1.27603,0.977731,0.165667,1.84848,1.07366
1.16,0.507309,1.28014,0.972637,0.163285,1.84216,1.0746
1.17,0.503229,1.28435,0.967584,0.160974,1.83592,1.07561
1.18,0.499265,1.2886,0.962571,0.158728,1.82965,1.07658
1.19,0.495205,1.29283,0.957598,0.156536,1.82348,1.07753
1.2,0.490975,1.29712,0.952667,0.15438,1.81733,1.07853
1.21,0.486687,1.30137,0.947778,0.152258,1.81123,1.07947
1.22,0.482396,1.30562,0.942932,0.150188,1.80521,1.08042
1.23,0.478015,1.30996,0.93813,0.148169,1.79918,1.08138
1.24,0.473379,1.31419,0.933373,0.146197,1.79329,1.0823
1.25,0.468857,1.31848,0.928661,0.14428,1.78749,1.08326
1.26,0.464238,1.3228,0.923995,0.142421,1.78168,1.08421
1.27,0.459476,1.32707,0.919376,0.140617,1.77596,1.08511
1.28,0.454658,1.33144,0.914805,0.138844,1.77027,1.08607
1.29,0.449776,1.33575,0.910282,0.137077,1.76463,1.087
1.3,0.44483,1.33998,0.905808,0.135336,1.75908,1.08789
1.31,0.439833,1.34431,0.901384,0.133632,1.75355,1.08884
1.32,0.434667,1.34859,0.897011,0.131967,1.74811,1.08976
1.33,0.429428,1.35283,0.892689,0.130347,1.74273,1.09064
1.34,0.424165,1.35717,0.88842,0.128774,1.73738,1.09158
1.35,0.418922,1.36142,0.884204,0.127243,1.73216,1.09248
1.36,0.41362,1.36559,0.880041,0.125754,1.72704,1.09335
1.37,0.40822,1.36984,0.875931,0.124317,1.72195,1.09426
1.38,0.402821,1.3741,0.871875,0.122936,1.71692,1.09514
1.39,0.39728,1.3783,0.867873,0.121601,1.71195,1.09599
1.4,0.391781,1.38253,0.863927,0.120271,1.70701,1.09686
1.41,0.386252,1.38679,0.860036,0.119009,1.70214,1.09773
1.42,0.380676,1.39094,0.8562,0.117756,1.69735,1.09857
1.43,0.375074,1.39513,0.85242,0.116571,1.69261,1.09939
1.44,0.369425,1.39935,0.848696,0.115424,1.68794,1.10025
1.45,0.363731,1.40348,0.84503,0.114289,1.68336,1.10108
1.46,0.357965,1.40761,0.84142,0.113221,1.67881,1.10187
1.47,0.352208,1.41176,0.837868,0.112188,1.67435,1.1027
1.48,0.346481,1.41585,0.834373,0.111178,1.66999,1.10352
1.49,0.34076,1.41987,0.830936,0.110199,1.6657,1.1043
1.5,0.334989,1.42386,0.827556,0.109272,1.66147,1.10505
1.51,0.329226,1.4279,0.824234,0.108367,1.6573,1.10586
1.52,0.323463,1.43185,0.82097,0.10746,1.65321,1.10664
1.53,0.317622,1.43573,0.817764,0.106572,1.64918,1.10738
1.54,0.311783,1.43955,0.814615,0.105711,1.64521,1.10809
1.55,0.305936,1.44341,0.811525,0.104885,1.64132,1.10886
1.56,0.300153,1.44721,0.808494,0.104093,1.63751,1.10959
1.57,0.294376,1.45093,0.805519,0.103314,1.63377,1.11029
1.58,0.288557,1.45456,0.802603,0.102556,1.63009,1.11095
1.59,0.282778,1.45819,0.799745,0.101824,1.62649,1.11163
1.6,0.277028,1.46178,0.796945,0.101118,1.62297,1.11231
1.61,0.271241,1.46531,0.794202,0.100436,1.6195,1.11295
1.62,0.265504,1.46876,0.791517,0.0997766,1.61611,1.11356
1.63,0.259806,1.47211,0.788889,0.0991297,1.61281,1.11415
1.64,0.254105,1.47547,0.786318,0.0984992,1.60958,1.11478
1.65,0.248398,1.47875,0.783804,0.0978885,1.60643,1.11537
1.66,0.242763,1.48194,0.781347,0.0972907,1.60335,1.11594
1.67,0.237157,1.48504,0.778946,0.0966927,1.60033,1.11648
1.68,0.231579,1.48804,0.776601,0.0960912,1.59739,1.117
1.69,0.226023,1.491,0.774312,0.095486,1.59451,1.11753
1.7,0.220492,1.49389,0.772078,0.0948791,1.59171,1.11805
1.71,0.215046,1.49667,0.769899,0.0942666,1.58898,1.11854
1.72,0.209609,1.49934,0.767775,0.0936546,1.58632,1.11901
1.73,0.204213,1.50191,0.765705,0.0930395,1.58374,1.11945
1.74,0.198866,1.50438,0.763688,0.0924153,1.58122,1.11986
1.75,0.193563,1.50679,0.761724,0.0917887,1.57878,1.12029
1.76,0.188312,1.50913,0.759813,0.0911645,1.5764,1.1207
1.77,0.18312,1.51136,0.757954,0.0905446,1.5741,1.1211
1.78,0.177969,1.51349,0.756146,0.0899208,1.57187,1.12146
1.79,0.172871,1.51553,0.75439,0.0892996,1.56971,1.12181
1.8,0.167826,1.51747,0.752685,0.0886772,1.56762,1.12212
1.81,0.162846,1.5193,0.751029,0.0880552,1.5656,1.12242
1.82,0.157911,1.52105,0.749424,0.0874324,1.56364,1.1227
1.83,0.153096,1.52275,0.747867,0.0868107,1.56176,1.12299
1.84,0.1483,1.52434,0.746358,0.0861908,1.55995,1.12325
1.85,0.143537,1.52584,0.744897,0.0855809,1.55821,1.1235
1.86,0.138865,1.52723,0.743483,0.0849667,1.55654,1.12372
1.87,0.134275,1.52854,0.742116,0.084365,1.55493,1.12391
1.88,0.129728,1.52975,0.740794,0.083758,1.55339,1.12409
1.89,0.125264,1.53087,0.739518,0.0831611,1.55192,1.12424
1.9,0.120838,1.5319,0.738286,0.0825685,1.55051,1.12437
1.91,0.116511,1.53283,0.737098,0.0819727,1.54916,1.12448
1.92,0.112248,1.53371,0.735953,0.0813896,1.54788,1.12459
1.93,0.108066,1.53452,0.73485,0.0808091,1.54666,1.12469
1.94,0.103943,1.53523,0.733789,0.0802281,1.5455,1.12477
1.95,0.0998624,1.53586,0.732769,0.0796583,1.54442,1.12483
1.96,0.0958617,1.5364,0.731789,0.0790924,1.5434,1.12488
1.97,0.0919214,1.53683,0.730849,0.0785244,1.54244,1.1249
1.98,0.0880485,1.53719,0.729949,0.0779671,1.54155,1.1249
1.99,0.0842371,1.53747,0.729086,0.0774118,1.54072,1.12489
2,0.0805095,1.53766,0.72826,0.0768574,1.53994,1.12486
2.01,0.0768287,1.53776,0.727472,0.0762991,1.53923,1.12482
2.02,0.0732342,1.53778,0.72672,0.0757413,1.53857,1.12475
2.03,0.0697092,1.53773,0.726004,0.0751886,1.53796,1.12467
2.04,0.066271,1.5376,0.725322,0.0746419,1.53741,1.12458
2.05,0.0628908,1.5374,0.724675,0.0740992,1.53692,1.12447
2.06,0.0595819,1.53712,0.72406,0.0735619,1.53648,1.12434
2.07,0.0563525,1.53676,0.723479,0.0730199,1.53609,1.1242
2.08,0.0531939,1.53634,0.722929,0.0724751,1.53576,1.12405
2.09,0.0501039,1.53586,0.722411,0.0719383,1.53548,1.12389
2.1,0.0470861,1.5353,0.721923,0.0714032,1.53525,1.12372
2.11,0.0441489,1.53467,0.721465,0.0708674,1.53506,1.12353
2.12,0.0412689,1.53399,0.721036,0.0703406,1.53492,1.12333
2.13,0.0384635,1.53325,0.720636,0.0698201,1.53483,1.12312
2.14,0.0357288,1.53246,0.720264,0.0693048,1.53478,1.12289
2.15,0.0330391,1.5316,0.719918,0.0687895,1.53478,1.12266
2.16,0.0304536,1.53069,0.719599,0.0682762,1.53482,1.12241
2.17,0.0279111,1.52972,0.719306,0.0677621,1.5349,1.12215
2.18,0.0254731,1.5287,0.719038,0.067258,1.53502,1.12189
2.19,0.023089,1.52765,0.718793,0.0667627,1.53519,1.12162
2.2,0.0207795,1.52658,0.718573,0.0663048,1.53539,1.12133
2.21,0.0185289,1.52546,0.718376,0.0658524,1.53563,1.12104
2.22,0.01632,1.5243,0.718201,0.0653994,1.5359,1.12075
2.23,0.0141732,1.52312,0.718047,0.0649666,1.53621,1.12044
2.24,0.012089,1.5219,0.717915,0.0645396,1.53656,1.12013
2.25,0.0100576,1.52063,0.717804,0.0641109,1.53693,1.11981
2.26,0.00811029,1.51931,0.717713,0.0636731,1.53734,1.11948
2.27,0.00620075,1.51796,0.717641,0.0632369,1.53778,1.11915
2.28,0.00436234,1.51659,0.717588,0.062821,1.53825,1.11881
2.29,0.00257,1.51518,0.717552,0.0624082,1.53875,1.11847
2.3,0.000866626,1.51372,0.717535,0.0619758,1.53928,1.11811
2.31,-0.000786947,1.51223,0.717534,0.0615408,1.53983,1.11775
2.32,-0.00238305,1.5107,0.717549,0.0610997,1.5404,1.11739
2.33,-0.00390876,1.50915,0.717579,0.0606723,1.541,1.11702
2.34,-0.00537615,1.50759,0.717625,0.0602631,1.54162,1.11664
2.35,-0.00676818,1.50601,0.717685,0.0598607,1.54226,1.11626
2.36,-0.00808768,1.50442,0.717758,0.0594619,1.54292,1.11587
2.37,-0.00934849,1.5028,0.717844,0.0590618,1.54359,1.11547
2.38,-0.0105476,1.50115,0.717943,0.0586589,1.54428,1.11507
2.39,-0.0117002,1.49949,0.718053,0.0582604,1.54499,1.11467
2.4,-0.0127875,1.49782,0.718175,0.0578652,1.54571,1.11426
2.41,-0.0138312,1.49614,0.718307,0.0574752,1.54645,1.11386
2.42,-0.0148152,1.49445,0.718449,0.0570857,1.5472,1.11344
2.43,-0.0157469,1.49275,0.718601,0.0567054,1.54796,1.11303
2.44,-0.0166289,1.49104,0.718762,0.0563316,1.54874,1.11262
2.45,-0.0174559,1.48933,0.718931,0.0559606,1.54953,1.11221
2.46,-0.0182378,1.48761,0.719109,0.055592,1.55033,1.11179
2.47,-0.0189583,1.48588,0.719294,0.055224,1.55114,1.11138
2.48,-0.0196615,1.48416,0.719486,0.0548583,1.55196,1.11096
2.49,-0.0203035,1.48242,0.719685,0.0544957,1.55279,1.11055
2.5,-0.0209021,1.48069,0.71989,0.0541367,1.55362,1.11014
2.51,-0.0214638,1.47897,0.720101,0.0537873,1.55447,1.10973
2.52,-0.0219827,1.47724,0.720318,0.0534453,1.55531,1.10931
2.53,-0.0224548,1.47552,0.720539,0.0531076,1.55617,1.1089
2.54,-0.0228785,1.47381,0.720765,0.0527737,1.55702,1.10849
2.55,-0.0232656,1.4721,0.720995,0.0524439,1.55788,1.10808
2.56,-0.0236061,1.47039,0.721228,0.052118,1.55874,1.10766
2.57,-0.0239033,1.46869,0.721465,0.0517959,1.5596,1.10725
2.58,-0.0241515,1.46701,0.721704,0.0514799,1.56046,1.10685
2.59,-0.0243794,1.46533,0.721946,0.0511681,1.56132,1.10644
2.6,-0.0245639,1.46367,0.72219,0.0508604,1.56218,1.10603
2.61,-0.0247182,1.46202,0.722436,0.0505568,1.56303,1.10563
2.62,-0.0248224,1.46039,0.722683,0.0502576,1.56387,1.10523
2.63,-0.0249004,1.45877,0.722931,0.049963,1.56472,1.10483
2.64,-0.0249432,1.45716,0.723179,0.0496728,1.56555,1.10444
2.65,-0.024941,1.45557,0.723427,0.049387,1.56638,1.10405
2.66,-0.0249051,1.454,0.723676,0.0491056,1.56721,1.10366
2.67,-0.0248484,1.45244,0.723924,0.0488285,1.56803,1.10328
2.68,-0.0247679,1.45091,0.724171,0.0485557,1.56885,1.1029
2.69,-0.0246411,1.44939,0.724417,0.0482886,1.56967,1.10253
2.7,-0.0244744,1.44788,0.724662,0.0480262,1.57048,1.10216
2.71,-0.0243168,1.4464,0.724906,0.0477679,1.57127,1.1018
2.72,-0.0241232,1.44494,0.725147,0.0475144,1.57206,1.10144
2.73,-0.0238972,1.4435,0.725387,0.0472653,1.57284,1.10108
2.74,-0.0236495,1.44208,0.725624,0.0470199,1.57361,1.10073
2.75,-0.023373,1.44068,0.725858,0.0467781,1.57437,1.10039
2.76,-0.023077,1.43929,0.72609,0.0465393,1.57513,1.10004
2.77,-0.0227664,1.43793,0.726318,0.0463041,1.57588,1.09971
2.78,-0.0224409,1.43658,0.726543,0.0460722,1.57661,1.09937
2.79,-0.0221006,1.43526,0.726765,0.0458432,1.57734,1.09905
2.8,-0.0217463,1.43396,0.726983,0.0456175,1.57806,1.09872
2.81,-0.0213822,1.43268,0.727198,0.0453947,1.57876,1.09841
2.82,-0.021011,1.43142,0.727409,0.0451746,1.57945,1.0981
2.83,-0.0206274,1.43019,0.727616,0.0449573,1.58014,1.0978
2.84,-0.0202297,1.42898,0.727819,0.0447431,1.5808,1.0975
2.85,-0.0198142,1.4278,0.728019,0.0445312,1.58146,1.09721
2.86,-0.0193842,1.42664,0.728214,0.0443222,1.5821,1.09693
2.87,-0.0189476,1.42551,0.728405,0.0441159,1.58273,1.09665
2.88,-0.0184963,1.4244,0.728591,0.0439114,1.58335,1.09638
2.89,-0.0180272,1.42332,0.728773,0.0437102,1.58395,1.09612
2.9,-0.0175453,1.42226,0.72895,0.0435106,1.58454,1.09587
2.91,-0.0170452,1.42122,0.729122,0.043313,1.58511,1.09562
2.92,-0.0165408,1.42021,0.729289,0.0431175,1.58567,1.09538
2.93,-0.0160277,1.41922,0.729451,0.0429243,1.58622,1.09514
2.94,-0.0155273,1.41826,0.729608,0.0427332,1.58675,1.09491
2.95,-0.0149917,1.41732,0.729759,0.0425442,1.58727,1.09469
2.96,-0.0144615,1.41641,0.729906,0.0423568,1.58777,1.09447
2.97,-0.0139169,1.41552,0.730047,0.0421724,1.58826,1.09426
2.98,-0.0133657,1.41465,0.730182,0.0419908,1.58874,1.09405
2.99,-0.012829,1.4138,0.730312,0.0418116,1.5892,1.09385
3,-0.0122673,1.41298,0.730436,0.0416343,1.58965,1.09366
3.01,-0.0116833,1.41219,0.730555,0.0414591,1.59008,1.09347
3.02,-0.011127,1.41141,0.730668,0.0412859,1.5905,1.09329
3.03,-0.0105555,1.41066,0.730776,0.0411148,1.5909,1.09311
3.04,-0.00996221,1.40993,0.730877,0.0409456,1.59129,1.09294
3.05,-0.00939709,1.40923,0.730973,0.0407786,1.59167,1.09278
3.06,-0.00881426,1.40855,0.731063,0.0406137,1.59203,1.09262
3.07,-0.00822291,1.40789,0.731147,0.040451,1.59238,1.09247
3.08,-0.00764117,1.40725,0.731225,0.0402903,1.59271,1.09232
3.09,-0.00703206,1.40663,0.731298,0.0401316,1.59303,1.09218
3.1,-0.00645397,1.40604,0.731364,0.039976,1.59333,1.09204
3.11,-0.00586382,1.40548,0.731425,0.0398229,1.59362,1.09191
3.12,-0.00527931,1.40493,0.73148,0.0396719,1.59389,1.09179
3.13,-0.00469251,1.40441,0.731529,0.0395228,1.59415,1.09166
3.14,-0.00411087,1.40391,0.731572,0.0393753,1.59439,1.09155
3.15,-0.00352824,1.40343,0.731609,0.0392299,1.59462,1.09144
3.16,-0.00295908,1.40297,0.731641,0.0390866,1.59483,1.09133
3.17,-0.00239124,1.40253,0.731667,0.0389442,1.59502,1.09122
3.18,-0.00183202,1.40212,0.731687,0.0388021,1.5952,1.09113
3.19,-0.00128018,1.40172,0.731702,0.0386613,1.59536,1.09103
3.2,-0.000729164,1.40135,0.731711,0.0385217,1.59551,1.09094
3.21,-0.000178038,1.40099,0.731715,0.0383831,1.59564,1.09086
3.22,0.000359348,1.40066,0.731714,0.0382461,1.59576,1.09078
