time,velocity,ratio,centerX,Xmax,Xmin,Ymax
0,0,1,4.75,3.75,5.75,1
0.01,0.0197665,0.99999,4.74991,3.74989,5.74993,1.00001
0.02,0.0391522,1,4.74963,3.74961,5.74963,1.00001
0.03,0.0581711,1.00003,4.74917,3.74915,5.74914,1.00002
0.04,0.0768403,1.00006,4.74851,3.7485,5.74844,1.00003
0.05,0.0952161,1.00009,4.74767,3.74766,5.74754,1.00003
0.06,0.113204,1.00013,4.74665,3.74665,5.74646,1.00004
0.07,0.130883,1.00018,4.74544,3.74545,5.74518,1.00004
0.08,0.14824,1.00023,4.74407,3.74409,5.74371,1.00004
0.09,0.165295,1.00029,4.74252,3.74256,5.74206,1.00004
0.1,0.182061,1.00038,4.7408,3.74087,5.74024,1.00006
0.11,0.198544,1.00048,4.73891,3.73903,5.73825,1.00009
0.12,0.214728,1.00059,4.73686,3.73703,5.73609,1.00012
0.13,0.230604,1.0007,4.73466,3.73488,5.73379,1.00015
0.14,0.246179,1.0008,4.73229,3.73259,5.73137,1.00019
0.15,0.261532,1.00091,4.72977,3.73015,5.72878,1.00022
0.16,0.276609,1.00103,4.72709,3.72756,5.72602,1.00025
0.17,0.291418,1.00118,4.72427,3.72484,5.72307,1.0003
0.18,0.305985,1.00141,4.72129,3.72199,5.71993,1.00037
0.19,0.320297,1.00165,4.71818,3.71902,5.71662,1.00045
0.2,0.334384,1.00191,4.71492,3.71593,5.71317,1.00052
0.21,0.348211,1.00218,4.71152,3.7127,5.70954,1.0006
0.22,0.361796,1.00251,4.70798,3.70935,5.70573,1.00069
0.23,0.375134,1.0029,4.70431,3.7059,5.70173,1.00081
0.24,0.388237,1.00332,4.70051,3.70234,5.69758,1.00094
0.25,0.401208,1.00376,4.69658,3.69866,5.69327,1.00105
0.26,0.413821,1.00423,4.69252,3.69485,5.68877,1.00118
0.27,0.426194,1.00477,4.68833,3.69092,5.6841,1.00135
0.28,0.438461,1.00535,4.68402,3.68688,5.67925,1.00151
0.29,0.450393,1.00596,4.67959,3.68275,5.67422,1.00167
0.3,0.462168,1.00663,4.67503,3.67854,5.66906,1.00186
0.31,0.473671,1.00735,4.67037,3.67425,5.66379,1.00208
0.32,0.484859,1.0081,4.66559,3.66988,5.65836,1.0023
0.33,0.495898,1.00889,4.6607,3.6654,5.65278,1.00252
0.34,0.506804,1.00976,4.65569,3.66084,5.64705,1.00279
0.35,0.517407,1.01067,4.65058,3.65622,5.64116,1.00306
0.36,0.52788,1.01161,4.64537,3.65152,5.63512,1.00332
0.37,0.538053,1.01266,4.64005,3.64673,5.62893,1.00364
0.38,0.547921,1.01375,4.63463,3.64189,5.62257,1.00395
0.39,0.557532,1.01489,4.62911,3.63699,5.61605,1.00426
0.4,0.566978,1.01613,4.6235,3.63198,5.60934,1.00463
0.41,0.576204,1.01735,4.61779,3.62686,5.60257,1.00499
0.42,0.585305,1.01858,4.612,3.62166,5.59569,1.00536
0.43,0.59416,1.01993,4.60611,3.61643,5.58867,1.00577
0.44,0.602621,1.02131,4.60013,3.61117,5.58152,1.00617
0.45,0.61105,1.02277,4.59407,3.60585,5.57421,1.00659
0.46,0.619336,1.0243,4.58793,3.60045,5.56675,1.00704
0.47,0.627427,1.02587,4.58171,3.59501,5.55914,1.00748
0.48,0.635261,1.02756,4.5754,3.58951,5.55136,1.00796
0.49,0.642973,1.02929,4.56902,3.58394,5.54344,1.00845
0.5,0.65048,1.03105,4.56256,3.57833,5.53542,1.00893
0.51,0.657959,1.03291,4.55603,3.57266,5.52727,1.00947
0.52,0.665003,1.03477,4.54942,3.5669,5.51899,1.00999
0.53,0.671909,1.0367,4.54274,3.56107,5.51058,1.01053
0.54,0.678632,1.03872,4.536,3.5552,5.50203,1.0111
0.55,0.685258,1.04077,4.52919,3.5493,5.49335,1.01165
0.56,0.69175,1.04295,4.52231,3.54338,5.48453,1.01226
0.57,0.69779,1.04515,4.51537,3.53739,5.4756,1.01286
0.58,0.703664,1.04741,4.50837,3.53137,5.46657,1.01347
0.59,0.70942,1.04974,4.50131,3.52531,5.45744,1.01412
0.6,0.715023,1.05211,4.49419,3.51923,5.44817,1.01473
0.61,0.720421,1.05461,4.48702,3.51313,5.43879,1.01541
0.62,0.725679,1.05713,4.4798,3.50696,5.42927,1.01606
0.63,0.730806,1.0597,4.47252,3.5007,5.41963,1.01674
0.64,0.735615,1.06231,4.4652,3.49438,5.40989,1.01744
0.65,0.740313,1.06501,4.45782,3.48808,5.40004,1.01813
0.66,0.744949,1.06783,4.4504,3.48178,5.39008,1.01887
0.67,0.74939,1.07066,4.44294,3.47544,5.38002,1.01958
0.68,0.753671,1.07364,4.43543,3.46908,5.36984,1.02036
0.69,0.757803,1.07664,4.42788,3.4627,5.35952,1.0211
0.7,0.761819,1.07974,4.42028,3.45629,5.34915,1.0219
0.71,0.765658,1.08286,4.41265,3.44986,5.33871,1.02267
0.72,0.769387,1.08603,4.40498,3.44337,5.32817,1.02347
0.73,0.772944,1.08924,4.39727,3.43682,5.31755,1.02429
0.74,0.776294,1.09252,4.38953,3.43025,5.30681,1.02509
0.75,0.779703,1.09594,4.38176,3.42369,5.29593,1.02593
0.76,0.782924,1.09936,4.37395,3.41712,5.285,1.02674
0.77,0.785973,1.10289,4.36611,3.41051,5.27399,1.02761
0.78,0.788904,1.10646,4.35824,3.40391,5.2629,1.02845
0.79,0.7917,1.1101,4.35034,3.39728,5.25173,1.02931
0.8,0.794407,1.11381,4.34242,3.39065,5.24047,1.03018
0.81,0.796963,1.11758,4.33446,3.38401,5.22914,1.03104
0.82,0.799369,1.12137,4.32649,3.37728,5.21775,1.03192
0.83,0.801834,1.12515,4.31848,3.37051,5.20631,1.03278
0.84,0.804206,1.12908,4.31046,3.36376,5.19479,1.03369
0.85,0.806398,1.13304,4.30241,3.35703,5.1832,1.03456
0.86,0.808503,1.13714,4.29434,3.35027,5.17151,1.0355
0.87,0.810461,1.14123,4.28625,3.3435,5.15976,1.03639
0.88,0.812364,1.14544,4.27814,3.33672,5.14796,1.03734
0.89,0.814165,1.14965,4.27001,3.32992,5.13611,1.03825
0.9,0.815891,1.15396,4.26186,3.32311,5.12419,1.03919
0.91,0.817501,1.15828,4.2537,3.31624,5.11223,1.04013
0.92,0.81908,1.16264,4.24552,3.30933,5.1002,1.04107
0.93,0.821032,1.16706,4.23733,3.30242,5.08814,1.04202
0.94,0.822548,1.17154,4.22911,3.29553,5.07602,1.04296
0.95,0.823931,1.1761,4.22088,3.28861,5.06386,1.04393
0.96,0.825236,1.18067,4.21264,3.28169,5.05163,1.04486
0.97,0.826448,1.18537,4.20439,3.27475,5.03936,1.04586
0.98,0.82748,1.19006,4.19612,3.26783,5.02706,1.04679
0.99,0.828457,1.19485,4.18784,3.26091,5.01472,1.04777
1,0.829411,1.19962,4.17956,3.25392,5.00234,1.04872
1.01,0.830315,1.20443,4.17126,3.24688,4.98993,1.0497
1.02,0.831237,1.20931,4.16296,3.23986,4.97748,1.05067
1.03,0.832066,1.21428,4.15465,3.23287,4.96501,1.05165
1.04,0.832841,1.21929,4.14632,3.22587,4.95251,1.05264
1.05,0.833503,1.22435,4.138,3.21887,4.93998,1.05362
1.06,0.834205,1.22947,4.12966,3.21185,4.92742,1.05462
1.07,0.834788,1.2346,4.12132,3.20483,4.91485,1.0556
1.08,0.835342,1.23982,4.11297,3.1978,4.90226,1.05661
1.09,0.836026,1.24498,4.10462,3.19071,4.88966,1.05757
1.1,0.836482,1.25023,4.09626,3.18359,4.87704,1.0586
1.11,0.836938,1.25545,4.0879,3.17648,4.86441,1.05956
1.12,0.837369,1.26078,4.07953,3.16939,4.85181,1.06058
1.13,0.837786,1.266,4.07116,3.16227,4.83931,1.06156
1.14,0.838144,1.27122,4.06278,3.15517,4.82691,1.06257
1.15,0.838402,1.27632,4.0544,3.14805,4.81462,1.06353
1.16,0.838679,1.2814,4.04602,3.14095,4.80243,1.06451
1.17,0.838891,1.28643,4.03763,3.13384,4.79035,1.06549
1.18,0.839146,1.29136,4.02925,3.12666,4.77837,1.06647
1.19,0.83936,1.29621,4.02085,3.11943,4.76649,1.06747
1.2,0.839525,1.30103,4.01246,3.11225,4.7547,1.06844
1.21,0.839632,1.30587,4.00407,3.10508,4.74299,1.06944
1.22,0.839705,1.3106,3.99568,3.09791,4.73136,1.0704
1.23,0.839778,1.31536,3.98728,3.09074,4.71983,1.07142
1.24,0.839852,1.31999,3.97889,3.08356,4.70838,1.07237
1.25,0.839939,1.32465,3.97049,3.07638,4.69701,1.07339
1.26,0.839969,1.32918,3.9621,3.06916,4.68571,1.07435
1.27,0.839996,1.3337,3.9537,3.06189,4.67446,1.07535
1.28,0.840065,1.33813,3.9453,3.05462,4.66329,1.07631
1.29,0.840004,1.34257,3.93691,3.04736,4.65219,1.0773
1.3,0.840043,1.34696,3.92851,3.04011,4.64114,1.07826
1.31,0.840014,1.35128,3.92011,3.03285,4.63018,1.07922
1.32,0.839939,1.3556,3.91172,3.02559,4.61926,1.08019
1.33,0.839836,1.35987,3.90332,3.01833,4.60839,1.08114
1.34,0.839723,1.36414,3.89492,3.01109,4.5976,1.08212
1.35,0.839636,1.3683,3.88653,3.00378,4.58686,1.08306
1.36,0.839579,1.37241,3.87814,2.99641,4.57619,1.08405
1.37,0.839428,1.37646,3.86974,2.98907,4.56556,1.08498
1.38,0.839371,1.38059,3.86136,2.98178,4.55498,1.08597
1.39,0.839138,1.38461,3.85297,2.97448,4.54444,1.08689
1.4,0.838955,1.38871,3.84458,2.96719,4.53394,1.08789
1.41,0.838742,1.39268,3.83619,2.95989,4.52351,1.08881
1.42,0.838531,1.39674,3.82781,2.9526,4.51309,1.08979
1.43,0.838857,1.40063,3.81943,2.94528,4.50276,1.09073
1.44,0.839061,1.40455,3.81104,2.93792,4.49242,1.09169
1.45,0.839263,1.40839,3.80265,2.93054,4.48214,1.09263
1.46,0.839304,1.41223,3.79426,2.92319,4.47191,1.09357
1.47,0.839074,1.41608,3.78587,2.91585,4.46167,1.09451
1.48,0.838856,1.41983,3.77749,2.9085,4.45153,1.09543
1.49,0.838815,1.42363,3.7691,2.90116,4.4414,1.09637
1.5,0.838664,1.42741,3.76072,2.89382,4.43127,1.09728
1.51,0.838534,1.43118,3.75233,2.8865,4.42122,1.09823
1.52,0.838427,1.43487,3.74395,2.87913,4.41118,1.09914
1.53,0.83825,1.43856,3.73557,2.87171,4.40114,1.1001
1.54,0.838007,1.44214,3.72719,2.86431,4.39121,1.101
1.55,0.837821,1.44584,3.71882,2.85696,4.38127,1.10196
1.56,0.837593,1.44945,3.71045,2.84959,4.37132,1.10284
1.57,0.837337,1.45309,3.70207,2.84223,4.36148,1.1038
1.58,0.836783,1.45664,3.69371,2.83487,4.35163,1.10469
1.59,0.836561,1.46027,3.68534,2.82751,4.3418,1.10564
1.6,0.836296,1.46377,3.67698,2.82013,4.33203,1.10653
1.61,0.83605,1.46723,3.66862,2.81271,4.3223,1.10745
1.62,0.835711,1.47065,3.66027,2.80526,4.31256,1.10835
1.63,0.835436,1.47413,3.65192,2.79785,4.30281,1.10926
1.64,0.835152,1.47754,3.64357,2.79045,4.29315,1.11015
1.65,0.834853,1.48091,3.63522,2.78304,4.28351,1.11102
1.66,0.834549,1.48433,3.62688,2.77565,4.27386,1.11192
1.67,0.834182,1.48772,3.61853,2.76826,4.26423,1.11279
1.68,0.833869,1.49111,3.6102,2.76089,4.25468,1.1137
1.69,0.833191,1.4944,3.60186,2.75346,4.24512,1.11456
1.7,0.832845,1.4977,3.59353,2.74598,4.23556,1.11548
1.71,0.832569,1.50097,3.58521,2.73854,4.22602,1.11634
1.72,0.832362,1.50428,3.57689,2.73114,4.21657,1.11725
1.73,0.832149,1.50749,3.56857,2.72373,4.20713,1.1181
1.74,0.832061,1.51083,3.56025,2.71634,4.19767,1.11902
1.75,0.831975,1.51406,3.55194,2.70893,4.18821,1.11986
1.76,0.831779,1.51735,3.54362,2.70154,4.17881,1.12077
1.77,0.831581,1.5205,3.53531,2.69411,4.16942,1.12161
1.78,0.831365,1.52369,3.527,2.68664,4.16004,1.12251
1.79,0.831183,1.52681,3.51869,2.67916,4.15066,1.12335
1.8,0.830984,1.52999,3.51038,2.67171,4.1413,1.12423
1.81,0.830786,1.53306,3.50207,2.66426,4.13201,1.12507
1.82,0.830591,1.53617,3.49377,2.65682,4.1227,1.12592
1.83,0.830337,1.53926,3.48547,2.64937,4.1134,1.12676
1.84,0.830128,1.54238,3.47717,2.64194,4.10409,1.12759
1.85,0.829944,1.54547,3.46887,2.6345,4.09482,1.12844
1.86,0.829737,1.54842,3.46058,2.62701,4.08561,1.12926
1.87,0.829544,1.55136,3.45229,2.61947,4.0764,1.13011
1.88,0.829371,1.55433,3.44399,2.61198,4.06718,1.13093
1.89,0.829186,1.55739,3.43571,2.60451,4.05795,1.13178
1.9,0.828978,1.56038,3.42742,2.59704,4.04873,1.13259
1.91,0.828792,1.56336,3.41913,2.58957,4.03958,1.13344
1.92,0.828591,1.56627,3.41085,2.5821,4.03043,1.13424
1.93,0.828346,1.56927,3.40257,2.57463,4.02129,1.1351
1.94,0.828122,1.57214,3.39429,2.56712,4.01213,1.13588
1.95,0.827894,1.57508,3.38601,2.55957,4.00297,1.13674
1.96,0.827698,1.57788,3.37774,2.55203,3.99386,1.13752
1.97,0.827466,1.5808,3.36946,2.54451,3.98477,1.13838
1.98,0.827205,1.5836,3.36119,2.53699,3.97569,1.13916
1.99,0.826947,1.58649,3.35293,2.52948,3.96661,1.14
2,0.826744,1.5893,3.34466,2.52197,3.95754,1.14078
2.01,0.826501,1.5922,3.3364,2.51447,3.94846,1.14159
2.02,0.826242,1.59495,3.32813,2.50696,3.93944,1.14237
2.03,0.825992,1.59767,3.31988,2.49938,3.93044,1.14318
2.04,0.825747,1.60036,3.31162,2.49179,3.92141,1.14396
2.05,0.825414,1.60315,3.30337,2.48425,3.9124,1.14477
2.06,0.825231,1.60594,3.29512,2.47673,3.90337,1.14555
2.07,0.824986,1.60876,3.28687,2.46922,3.89436,1.14636
2.08,0.824706,1.61152,3.27863,2.46171,3.88539,1.14714
2.09,0.824435,1.61427,3.27038,2.4542,3.87644,1.14794
2.1,0.824162,1.61702,3.26214,2.44669,3.86749,1.14873
2.11,0.823918,1.61975,3.25391,2.43913,3.85852,1.14953
2.12,0.823633,1.62244,3.24567,2.43155,3.84957,1.15032
2.13,0.823444,1.62514,3.23744,2.424,3.84061,1.15109
2.14,0.823272,1.62788,3.22921,2.41647,3.83168,1.15189
2.15,0.823043,1.6305,3.22098,2.40894,3.8228,1.15265
2.16,0.822736,1.6332,3.21275,2.40142,3.81392,1.15344
2.17,0.82251,1.63584,3.20453,2.3939,3.80503,1.15419
2.18,0.822249,1.63861,3.19631,2.3864,3.79612,1.15499
2.19,0.822005,1.6412,3.18809,2.37886,3.78723,1.15571
2.2,0.82175,1.64386,3.17988,2.37126,3.77832,1.15651
2.21,0.82146,1.64642,3.17166,2.3637,3.76944,1.15721
2.22,0.821249,1.64908,3.16345,2.35618,3.7606,1.15801
2.23,0.821024,1.65162,3.15524,2.34865,3.75177,1.15871
2.24,0.82074,1.65431,3.14704,2.34114,3.74293,1.1595
2.25,0.820481,1.65689,3.13884,2.33361,3.73408,1.16021
2.26,0.820219,1.6596,3.13064,2.3261,3.72524,1.161
2.27,0.81994,1.66215,3.12244,2.31856,3.71639,1.16171
2.28,0.819628,1.66478,3.11424,2.31099,3.70755,1.16249
2.29,0.819397,1.66725,3.10605,2.3034,3.69875,1.1632
2.3,0.819173,1.66984,3.09786,2.29586,3.68997,1.16398
2.31,0.818918,1.67235,3.08968,2.28831,3.68119,1.16469
2.32,0.818643,1.67496,3.08149,2.28078,3.67239,1.16545
2.33,0.818366,1.6775,3.07331,2.27324,3.66361,1.16617
2.34,0.818059,1.68014,3.06513,2.26573,3.65481,1.16692
2.35,0.817719,1.68272,3.05695,2.25822,3.64602,1.16764
2.36,0.817457,1.68528,3.04878,2.25065,3.63721,1.16837
2.37,0.817171,1.68772,3.04061,2.24304,3.62845,1.1691
2.38,0.816656,1.69023,3.03245,2.2355,3.61971,1.16982
2.39,0.816334,1.69277,3.02428,2.22798,3.61097,1.17054
2.4,0.816099,1.6953,3.01612,2.22047,3.60223,1.17125
2.41,0.815824,1.69787,3.00797,2.21296,3.59348,1.17197
2.42,0.815565,1.70037,2.99981,2.20546,3.58475,1.17265
2.43,0.815395,1.70295,2.99166,2.19795,3.57599,1.17337
2.44,0.815181,1.70542,2.98351,2.19041,3.56724,1.17404
2.45,0.81492,1.70795,2.97537,2.18284,3.55848,1.17476
2.46,0.814721,1.71038,2.96722,2.1753,3.54977,1.17543
2.47,0.814507,1.71288,2.95908,2.16778,3.54107,1.17614
2.48,0.814258,1.71531,2.95093,2.16025,3.53238,1.17682
2.49,0.813966,1.71781,2.9428,2.15272,3.52369,1.17753
2.5,0.813687,1.72027,2.93466,2.14521,3.51499,1.1782
2.51,0.813477,1.72281,2.92653,2.13771,3.5063,1.17891
2.52,0.813017,1.72527,2.9184,2.13019,3.49759,1.17957
2.53,0.812775,1.72774,2.91027,2.1226,3.48888,1.18029
2.54,0.812519,1.73016,2.90215,2.11503,3.48016,1.18094
2.55,0.812247,1.73265,2.89403,2.10751,3.4715,1.18165
2.56,0.811935,1.735,2.88591,2.09999,3.46287,1.18229
2.57,0.811672,1.73749,2.8778,2.09248,3.45423,1.18301
2.58,0.811386,1.73985,2.86969,2.08497,3.44559,1.18364
2.59,0.811061,1.74237,2.86158,2.07746,3.43693,1.18435
2.6,0.810811,1.74473,2.85347,2.06993,3.42828,1.18498
2.61,0.810472,1.74718,2.84537,2.06236,3.41961,1.18568
2.62,0.810125,1.7495,2.83727,2.0548,3.41096,1.1863
2.63,0.809828,1.75194,2.82917,2.04726,3.40231,1.18699
2.64,0.80964,1.7543,2.82107,2.03972,3.39366,1.18761
2.65,0.809138,1.75668,2.81299,2.03219,3.38506,1.18828
2.66,0.808811,1.759,2.8049,2.02466,3.37646,1.1889
2.67,0.808617,1.76139,2.79681,2.01715,3.36787,1.18956
2.68,0.808244,1.76377,2.78873,2.00966,3.35925,1.19018
2.69,0.807899,1.76609,2.78065,2.00211,3.35067,1.19084
2.7,0.807488,1.76833,2.77258,1.99451,3.34207,1.19146
2.71,0.807154,1.77068,2.76451,1.98697,3.33349,1.19212
2.72,0.806797,1.77305,2.75644,1.97947,3.32489,1.19275
2.73,0.806474,1.77546,2.74838,1.97197,3.3163,1.1934
2.74,0.806151,1.77787,2.74032,1.96448,3.3077,1.19403
2.75,0.805803,1.78032,2.73226,1.957,3.29909,1.19468
2.76,0.804611,1.7827,2.72422,1.94953,3.29054,1.19531
2.77,0.804149,1.78504,2.71617,1.94203,3.28201,1.19596
2.78,0.803609,1.78731,2.70814,1.93451,3.27349,1.19659
2.79,0.8031,1.78963,2.70011,1.927,3.26496,1.19723
2.8,0.802526,1.79198,2.69208,1.91953,3.25644,1.19786
2.81,0.801938,1.79434,2.68406,1.91205,3.2479,1.19849
2.82,0.801517,1.79673,2.67605,1.9046,3.23938,1.19912
2.83,0.801049,1.79911,2.66804,1.89714,3.23084,1.19974
2.84,0.800585,1.80154,2.66003,1.88972,3.22233,1.20038
2.85,0.800115,1.80388,2.65203,1.88227,3.21381,1.20097
2.86,0.799686,1.80624,2.64404,1.87479,3.2053,1.20161
2.87,0.799257,1.80849,2.63605,1.8673,3.19679,1.20219
2.88,0.798819,1.81087,2.62806,1.85986,3.18832,1.20284
2.89,0.798373,1.81312,2.62008,1.85242,3.17987,1.20341
2.9,0.797988,1.81552,2.61209,1.845,3.17139,1.20404
2.91,0.797586,1.81776,2.60412,1.83758,3.16294,1.20459
2.92,0.797161,1.82016,2.59615,1.83017,3.15448,1.20523
2.93,0.796701,1.82241,2.58818,1.82276,3.14603,1.20578
2.94,0.796294,1.82477,2.58022,1.81531,3.13757,1.20641
2.95,0.795879,1.82697,2.57226,1.80784,3.12912,1.20696
2.96,0.795395,1.82936,2.56431,1.80041,3.12065,1.2076
2.97,0.795003,1.83164,2.55636,1.79299,3.11219,1.20815
2.98,0.794558,1.83406,2.54842,1.78557,3.10373,1.20879
2.99,0.794157,1.83633,2.54047,1.77817,3.09528,1.20933
3,0.79367,1.83874,2.53254,1.77077,3.08686,1.20998
3.01,0.793214,1.84099,2.52461,1.7634,3.07848,1.21052
3.02,0.79278,1.84336,2.51668,1.75601,3.07009,1.21116
3.03,0.792336,1.84553,2.50876,1.74856,3.06169,1.21171
3.04,0.791858,1.84781,2.50084,1.7411,3.0533,1.21234
3.05,0.791383,1.85008,2.49293,1.73371,3.04489,1.2129
3.06,0.791033,1.85244,2.48502,1.72633,3.03651,1.21351
3.07,0.790594,1.85474,2.47711,1.71897,3.02813,1.21407
3.08,0.790147,1.85711,2.46921,1.71161,3.01975,1.21468
3.09,0.789692,1.85945,2.46131,1.70426,3.01136,1.21524
3.1,0.789191,1.86184,2.45342,1.69692,3.00297,1.21583
3.11,0.788735,1.86416,2.44554,1.68953,2.99458,1.2164
3.12,0.78828,1.86648,2.43765,1.68214,2.98617,1.21698
3.13,0.787794,1.86882,2.42978,1.67477,2.97779,1.21756
3.14,0.787333,1.87115,2.4219,1.66743,2.96942,1.21811
3.15,0.786859,1.87344,2.41404,1.66009,2.96111,1.2187
3.16,0.78639,1.87572,2.40617,1.65276,2.95278,1.21923
3.17,0.785926,1.87804,2.39831,1.64544,2.94447,1.21981
3.18,0.785361,1.88036,2.39046,1.63816,2.93614,1.22034
3.19,0.784847,1.88269,2.38261,1.63084,2.92783,1.22091
3.2,0.784306,1.88491,2.37477,1.62348,2.91949,1.22144
3.21,0.783825,1.88721,2.36693,1.61614,2.91119,1.22202
3.22,0.783337,1.88952,2.3591,1.60884,2.90287,1.22255
3.23,0.782829,1.89189,2.35127,1.60155,2.89458,1.22314
3.24,0.782366,1.89423,2.34345,1.59427,2.88626,1.22366
3.25,0.78185,1.89666,2.33562,1.58699,2.87795,1.22425
3.26,0.781269,1.899,2.32781,1.57973,2.86964,1.22477
3.27,0.780268,1.90147,2.32001,1.57247,2.86133,1.22537
3.28,0.779893,1.90377,2.31221,1.56518,2.85304,1.22589
3.29,0.779367,1.90617,2.30441,1.55788,2.84474,1.22649
3.3,0.778669,1.90842,2.29663,1.55061,2.83649,1.227
3.31,0.778081,1.91085,2.28885,1.54337,2.82825,1.22761
3.32,0.77748,1.91313,2.28107,1.53613,2.82001,1.22812
3.33,0.776968,1.9156,2.2733,1.5289,2.81177,1.22873
3.34,0.776372,1.91794,2.26554,1.52169,2.80354,1.22925
3.35,0.775757,1.92045,2.25778,1.51451,2.79529,1.22984
3.36,0.77512,1.92282,2.25003,1.50731,2.78707,1.23037
3.37,0.774572,1.9252,2.24228,1.50007,2.77884,1.23094
3.38,0.773937,1.92747,2.23454,1.49281,2.77063,1.23149
3.39,0.773255,1.92988,2.22681,1.48561,2.76242,1.23204
3.4,0.772583,1.93234,2.21908,1.47845,2.75421,1.23259
3.41,0.771971,1.93479,2.21136,1.4713,2.74599,1.23313
3.42,0.771315,1.93731,2.20365,1.46416,2.73778,1.2337
3.43,0.770642,1.93977,2.19594,1.45703,2.72957,1.23422
3.44,0.76994,1.94233,2.18824,1.44992,2.72137,1.23479
3.45,0.769291,1.94471,2.18055,1.44278,2.71319,1.23528
3.46,0.768687,1.94719,2.17286,1.43563,2.705,1.23585
3.47,0.768072,1.94956,2.16518,1.42849,2.69682,1.23634
3.48,0.767356,1.95207,2.1575,1.42139,2.68868,1.23691
3.49,0.766722,1.95445,2.14984,1.41429,2.68054,1.23741
3.5,0.766089,1.95701,2.14217,1.40721,2.67239,1.23798
3.51,0.765412,1.95942,2.13452,1.40014,2.66427,1.23847
3.52,0.764479,1.96201,2.12687,1.39309,2.65614,1.23905
3.53,0.763763,1.96446,2.11924,1.38607,2.64804,1.23955
3.54,0.763126,1.96704,2.1116,1.37901,2.63992,1.24013
3.55,0.76242,1.96938,2.10398,1.37192,2.63183,1.24062
3.56,0.761705,1.97199,2.09636,1.36487,2.62371,1.24121
3.57,0.760911,1.97445,2.08875,1.35786,2.61563,1.2417
3.58,0.760163,1.97714,2.08115,1.35086,2.60752,1.2423
3.59,0.759414,1.97964,2.07355,1.34387,2.59944,1.24279
3.6,0.758609,1.98232,2.06596,1.3369,2.59136,1.24338
3.61,0.757897,1.98486,2.05838,1.32993,2.5833,1.24388
3.62,0.757155,1.98755,2.05081,1.32298,2.57523,1.24446
3.63,0.756398,1.99007,2.04324,1.31599,2.56718,1.24497
3.64,0.755553,1.99266,2.03569,1.30899,2.55911,1.24553
3.65,0.754813,1.99524,2.02814,1.30203,2.55106,1.24606
3.66,0.754045,1.99792,2.0206,1.2951,2.543,1.24661
3.67,0.753299,2.00049,2.01306,1.28816,2.535,1.24714
3.68,0.752406,2.0031,2.00554,1.28126,2.52701,1.24768
3.69,0.75164,2.00572,1.99802,1.27436,2.51903,1.24823
3.7,0.750817,2.00837,1.99051,1.2675,2.51104,1.24875
3.71,0.749979,2.01109,1.98301,1.26065,2.50307,1.24931
3.72,0.749064,2.0137,1.97552,1.25377,2.49509,1.24982
3.73,0.748208,2.01633,1.96803,1.24686,2.48711,1.25038
3.74,0.747394,2.01894,1.96056,1.23999,2.47914,1.25088
