time,velocity,ratio,centerX,Xmax,Xmin,Ymax
0,0,1,2,1,3,1
0.01,0.0187506,1,1.99991,0.999915,2.99991,1
0.02,0.0371023,1.00003,1.99964,0.999656,2.99962,1.00001
0.03,0.0551171,1.00006,1.99918,0.999226,2.99914,1.00001
0.04,0.0727109,1.0001,1.99855,0.998628,2.99848,1.00002
0.05,0.0900107,1.00015,1.99775,0.997865,2.99764,1.00003
0.06,0.106927,1.00021,1.99677,0.99694,2.99662,1.00005
0.07,0.123533,1.00027,1.99562,0.995863,2.99543,1.00006
0.08,0.139821,1.00035,1.99431,0.994638,2.99408,1.00007
0.09,0.155796,1.00044,1.99284,0.993263,2.99257,1.00009
0.1,0.171468,1.00055,1.99121,0.991744,2.99089,1.00013
0.11,0.186866,1.00068,1.98943,0.990081,2.98907,1.00017
0.12,0.201948,1.00081,1.98749,0.988276,2.98709,1.00022
0.13,0.216798,1.00096,1.98541,0.986342,2.98498,1.00027
0.14,0.231137,1.00111,1.98317,0.984283,2.98271,1.00033
0.15,0.245249,1.0013,1.9808,0.982105,2.98027,1.00038
0.16,0.259113,1.00151,1.97828,0.979801,2.97766,1.00044
0.17,0.272843,1.00177,1.97563,0.977378,2.97488,1.00051
0.18,0.286237,1.00207,1.97284,0.974836,2.97194,1.00062
0.19,0.299439,1.00239,1.96992,0.972186,2.96886,1.00072
0.2,0.312332,1.00274,1.96686,0.969431,2.96562,1.00083
0.21,0.325105,1.00312,1.96368,0.966569,2.9622,1.00093
0.22,0.337353,1.00354,1.96037,0.963596,2.95861,1.00104
0.23,0.349634,1.00402,1.95694,0.960526,2.95489,1.0012
0.24,0.361569,1.00451,1.95339,0.957364,2.95106,1.00135
0.25,0.373353,1.00504,1.94972,0.95411,2.94706,1.0015
0.26,0.38477,1.00561,1.94594,0.950762,2.94288,1.00165
0.27,0.396151,1.00624,1.94204,0.947305,2.93859,1.00185
0.28,0.407242,1.00685,1.93802,0.943747,2.93421,1.00205
0.29,0.418004,1.00755,1.9339,0.940103,2.92959,1.00225
0.3,0.428648,1.00828,1.92967,0.936377,2.92483,1.00246
0.31,0.438764,1.00904,1.92534,0.932588,2.92006,1.00272
0.32,0.449025,1.00981,1.9209,0.928717,2.91518,1.00298
0.33,0.458982,1.01066,1.91637,0.924781,2.91008,1.00322
0.34,0.468603,1.01155,1.91173,0.920761,2.90486,1.00351
0.35,0.47821,1.01249,1.907,0.916662,2.89953,1.00382
0.36,0.48744,1.01349,1.90218,0.912497,2.89398,1.00411
0.37,0.496564,1.01453,1.89726,0.908269,2.88835,1.00442
0.38,0.505359,1.01562,1.89226,0.903979,2.88262,1.00478
0.39,0.514102,1.01678,1.88716,0.899621,2.87668,1.00512
0.4,0.52267,1.01794,1.88198,0.895217,2.87071,1.00547
0.41,0.530773,1.01925,1.87672,0.890775,2.86451,1.00587
0.42,0.538919,1.02056,1.87138,0.88627,2.85824,1.00625
0.43,0.546665,1.02178,1.86595,0.88168,2.85206,1.00665
0.44,0.554263,1.02314,1.86045,0.877018,2.84565,1.00709
0.45,0.561528,1.02451,1.85487,0.87231,2.83914,1.00751
0.46,0.568957,1.02598,1.84923,0.867586,2.83245,1.00796
0.47,0.576161,1.02757,1.8435,0.86282,2.8256,1.00844
0.48,0.582972,1.02913,1.83771,0.858004,2.81871,1.00891
0.49,0.589806,1.0308,1.83185,0.853112,2.81159,1.0094
0.5,0.596466,1.03247,1.82592,0.848183,2.80449,1.00992
0.51,0.602838,1.03425,1.81993,0.843213,2.79711,1.01041
0.52,0.60839,1.03599,1.81387,0.838189,2.78987,1.01097
0.53,0.614328,1.03779,1.80776,0.833133,2.78248,1.01151
0.54,0.619912,1.03963,1.80159,0.828057,2.77501,1.01205
0.55,0.625362,1.04157,1.79537,0.822926,2.7674,1.01265
0.56,0.630806,1.04349,1.78909,0.817728,2.7597,1.01321
0.57,0.636197,1.04549,1.78276,0.812487,2.75189,1.01382
0.58,0.641498,1.04754,1.77637,0.807233,2.74401,1.01443
0.59,0.646481,1.04964,1.76993,0.801941,2.73598,1.01502
0.6,0.651445,1.05179,1.76345,0.79664,2.72798,1.01569
0.61,0.656161,1.05386,1.75691,0.791281,2.72002,1.01631
0.62,0.660859,1.05603,1.75033,0.785903,2.71191,1.01696
0.63,0.6653,1.05828,1.7437,0.780509,2.70368,1.01763
0.64,0.66956,1.06055,1.73703,0.775078,2.69537,1.01828
0.65,0.673832,1.06294,1.73031,0.769643,2.68693,1.01899
0.66,0.677746,1.06532,1.72355,0.764218,2.67849,1.01966
0.67,0.681617,1.06784,1.71676,0.75874,2.66986,1.02038
0.68,0.685369,1.07023,1.70993,0.753202,2.66137,1.02109
0.69,0.688792,1.07269,1.70306,0.747625,2.65276,1.02181
0.7,0.692129,1.07521,1.69615,0.742089,2.64414,1.02255
0.71,0.69514,1.0778,1.68922,0.736566,2.63537,1.02327
0.72,0.698295,1.08047,1.68226,0.731028,2.6266,1.02405
0.73,0.701336,1.08312,1.67526,0.725447,2.61774,1.02479
0.74,0.704173,1.08586,1.66823,0.719869,2.60883,1.02558
0.75,0.707022,1.08856,1.66118,0.714268,2.59997,1.02635
0.76,0.709787,1.09126,1.6541,0.708652,2.59111,1.02712
0.77,0.712232,1.09402,1.64699,0.703047,2.58222,1.02793
0.78,0.714729,1.09682,1.63986,0.697412,2.57319,1.02869
0.79,0.716993,1.09966,1.6327,0.691728,2.56418,1.02953
0.8,0.719239,1.10251,1.62552,0.68603,2.55507,1.03031
0.81,0.721423,1.10545,1.61832,0.68035,2.54592,1.03115
0.82,0.723322,1.10835,1.6111,0.674665,2.53681,1.03196
0.83,0.725213,1.11127,1.60385,0.668983,2.52772,1.03278
0.84,0.726883,1.11419,1.5966,0.663269,2.51863,1.03361
0.85,0.728557,1.11718,1.58932,0.657576,2.50945,1.03444
0.86,0.730017,1.1202,1.58203,0.651877,2.50029,1.03529
0.87,0.731638,1.12324,1.57472,0.646184,2.49105,1.03612
0.88,0.732845,1.1264,1.5674,0.640527,2.48179,1.037
0.89,0.734164,1.12943,1.56006,0.634856,2.47264,1.03782
0.9,0.735147,1.1325,1.55272,0.629137,2.46352,1.03872
0.91,0.736358,1.13551,1.54536,0.623398,2.4544,1.03956
0.92,0.737371,1.13868,1.53799,0.617718,2.4452,1.04046
0.93,0.737981,1.14183,1.53062,0.612055,2.43601,1.04132
0.94,0.738718,1.14504,1.52324,0.606401,2.42678,1.04221
0.95,0.739446,1.14826,1.51585,0.600715,2.41752,1.04309
0.96,0.739955,1.15144,1.50845,0.595051,2.40838,1.04397
0.97,0.740443,1.15465,1.50105,0.589382,2.39923,1.04487
0.98,0.740727,1.15784,1.49364,0.583718,2.3901,1.04575
0.99,0.741138,1.16112,1.48623,0.578083,2.38093,1.04666
1,0.741289,1.16435,1.47882,0.572428,2.37177,1.04753
1.01,0.741587,1.16761,1.47141,0.566738,2.36263,1.04845
1.02,0.741476,1.17085,1.46399,0.561054,2.35346,1.04932
1.03,0.741593,1.17411,1.45658,0.555407,2.34442,1.05025
1.04,0.741474,1.17732,1.44917,0.549768,2.33538,1.05112
1.05,0.741382,1.18063,1.44175,0.544148,2.32635,1.05206
1.06,0.741078,1.18389,1.43434,0.538517,2.3173,1.05294
1.07,0.740918,1.18726,1.42693,0.532918,2.30824,1.05388
1.08,0.740371,1.19058,1.41953,0.52733,2.2992,1.05477
1.09,0.73995,1.19399,1.41212,0.521764,2.29014,1.05571
1.1,0.73948,1.19733,1.40473,0.516251,2.2812,1.05661
1.11,0.738757,1.20072,1.39734,0.510751,2.27227,1.05754
1.12,0.738174,1.20405,1.38995,0.505213,2.26336,1.05845
1.13,0.737258,1.20742,1.38258,0.499663,2.25446,1.05938
1.14,0.736411,1.21081,1.37521,0.49417,2.24556,1.0603
1.15,0.735381,1.21424,1.36785,0.488726,2.23669,1.06123
1.16,0.734486,1.21772,1.3605,0.483326,2.22781,1.06215
1.17,0.733474,1.22109,1.35316,0.477903,2.21908,1.06307
1.18,0.73226,1.22449,1.34583,0.472512,2.21036,1.06399
1.19,0.731166,1.22789,1.33852,0.467144,2.20166,1.0649
1.2,0.72981,1.23136,1.33121,0.461789,2.19295,1.06584
1.21,0.728553,1.23481,1.32392,0.456474,2.18426,1.06675
1.22,0.727198,1.23834,1.31664,0.451197,2.17557,1.06768
1.23,0.725798,1.24183,1.30938,0.445898,2.16689,1.06859
1.24,0.724188,1.24531,1.30213,0.440599,2.15832,1.06954
1.25,0.722604,1.24874,1.29489,0.435327,2.14976,1.07045
1.26,0.720983,1.25226,1.28768,0.430107,2.14125,1.0714
1.27,0.719219,1.25576,1.28048,0.424925,2.13273,1.07229
1.28,0.717424,1.25933,1.27329,0.419773,2.12425,1.07325
1.29,0.71563,1.26285,1.26613,0.414638,2.11577,1.07414
1.3,0.71366,1.26648,1.25898,0.409538,2.10732,1.0751
1.31,0.711454,1.27001,1.25186,0.404487,2.09894,1.07599
1.32,0.709468,1.27361,1.24475,0.399473,2.09065,1.07695
1.33,0.707276,1.27716,1.23767,0.394516,2.08239,1.07784
1.34,0.705035,1.28086,1.23061,0.389633,2.07413,1.0788
1.35,0.70263,1.28446,1.22357,0.384757,2.06589,1.07968
1.36,0.700198,1.28815,1.21655,0.379873,2.05767,1.08063
1.37,0.697799,1.29175,1.20956,0.374988,2.04948,1.08151
1.38,0.695343,1.29547,1.2026,0.370158,2.0413,1.08246
1.39,0.692825,1.29911,1.19566,0.365384,2.03322,1.08335
1.4,0.690246,1.30286,1.18874,0.360684,2.02517,1.0843
1.41,0.687561,1.30655,1.18185,0.35601,2.01717,1.0852
1.42,0.684781,1.31033,1.17499,0.351369,2.00917,1.08613
1.43,0.682006,1.31407,1.16816,0.346761,2.00122,1.08704
1.44,0.679101,1.3179,1.16135,0.342225,1.99328,1.08797
1.45,0.676165,1.32173,1.15457,0.337709,1.98538,1.08889
1.46,0.673052,1.32558,1.14783,0.333244,1.97751,1.0898
1.47,0.669774,1.32941,1.14111,0.328849,1.96977,1.09073
1.48,0.666561,1.33325,1.13443,0.324496,1.96205,1.09164
1.49,0.663246,1.3371,1.12778,0.320127,1.95438,1.09258
1.5,0.659962,1.34093,1.12117,0.315785,1.9467,1.09347
1.51,0.656388,1.34483,1.11459,0.311493,1.93908,1.09442
1.52,0.652983,1.34874,1.10804,0.307286,1.93147,1.09529
1.53,0.649552,1.35274,1.10152,0.303112,1.9239,1.09625
1.54,0.645909,1.35671,1.09505,0.299004,1.91635,1.09713
1.55,0.642312,1.36074,1.08861,0.294958,1.90891,1.09809
1.56,0.638622,1.36472,1.0822,0.29094,1.90149,1.09898
1.57,0.634814,1.36878,1.07583,0.286974,1.89414,1.09992
1.58,0.631024,1.37287,1.0695,0.283088,1.88678,1.10084
1.59,0.627232,1.37701,1.06321,0.279253,1.87949,1.10177
1.6,0.623287,1.38117,1.05696,0.275453,1.87222,1.1027
1.61,0.619149,1.38535,1.05075,0.271726,1.86499,1.10362
1.62,0.615132,1.38964,1.04457,0.268066,1.85779,1.10457
1.63,0.610843,1.39384,1.03844,0.264472,1.85068,1.10547
1.64,0.606593,1.3981,1.03236,0.260888,1.84367,1.10644
1.65,0.602332,1.40229,1.02631,0.257322,1.83667,1.10735
1.66,0.59796,1.40655,1.02031,0.253791,1.82973,1.10832
1.67,0.593444,1.41082,1.01435,0.250309,1.8228,1.10925
1.68,0.588982,1.41513,1.00844,0.24691,1.81593,1.11018
1.69,0.58442,1.4195,1.00257,0.243566,1.80908,1.11113
1.7,0.579815,1.42384,0.996748,0.240287,1.8023,1.11202
1.71,0.575061,1.42831,0.990973,0.237056,1.79553,1.11299
1.72,0.570417,1.43269,0.985245,0.233901,1.78885,1.11388
1.73,0.565709,1.43713,0.979564,0.230766,1.78225,1.11484
1.74,0.560818,1.44156,0.97393,0.227693,1.77567,1.11576
1.75,0.556004,1.44601,0.968345,0.224669,1.76916,1.11668
1.76,0.551077,1.45056,0.962808,0.221712,1.76267,1.11763
1.77,0.546077,1.45504,0.957321,0.218825,1.75625,1.11851
1.78,0.541062,1.45967,0.951884,0.215976,1.74986,1.11948
1.79,0.536077,1.46422,0.946498,0.213166,1.74352,1.12039
1.8,0.530914,1.46884,0.941162,0.21042,1.73723,1.12131
1.81,0.525757,1.4735,0.935877,0.207736,1.73098,1.12225
1.82,0.52054,1.47805,0.930645,0.205112,1.72486,1.12313
1.83,0.515317,1.48274,0.925465,0.202551,1.71879,1.12409
1.84,0.510024,1.48737,0.920337,0.200015,1.71276,1.12501
1.85,0.50461,1.49196,0.915263,0.197498,1.70679,1.12591
1.86,0.499156,1.49665,0.910243,0.195017,1.70085,1.12685
1.87,0.493699,1.50125,0.905277,0.192583,1.69497,1.12773
1.88,0.488262,1.50594,0.900366,0.190204,1.68914,1.12866
1.89,0.482656,1.51065,0.895511,0.187885,1.68337,1.12958
1.9,0.477109,1.51533,0.890711,0.185646,1.67765,1.13044
1.91,0.471461,1.52017,0.885967,0.18347,1.67197,1.13139
1.92,0.465778,1.52493,0.881279,0.181347,1.66638,1.13229
1.93,0.460071,1.52964,0.876648,0.179274,1.66087,1.13316
1.94,0.454443,1.53447,0.872074,0.177257,1.65541,1.13409
1.95,0.448762,1.53924,0.867557,0.175289,1.65001,1.13497
1.96,0.44305,1.54402,0.863096,0.173389,1.64466,1.13584
1.97,0.43734,1.54889,0.858693,0.171531,1.63937,1.13676
1.98,0.431563,1.55369,0.854347,0.169721,1.63414,1.13763
1.99,0.425745,1.55847,0.850059,0.167945,1.62898,1.13848
2,0.419906,1.56331,0.845829,0.166205,1.62387,1.13939
2.01,0.414103,1.56809,0.841657,0.164519,1.61883,1.14025
2.02,0.408222,1.57285,0.837544,0.162882,1.61385,1.14108
2.03,0.402367,1.57768,0.833489,0.161288,1.60894,1.14196
2.04,0.396463,1.58242,0.829493,0.159747,1.60411,1.1428
2.05,0.390568,1.5871,0.825556,0.158258,1.59937,1.14359
2.06,0.384662,1.59189,0.821679,0.156817,1.59468,1.14446
2.07,0.378798,1.59663,0.817861,0.155415,1.59005,1.14529
2.08,0.372825,1.60129,0.814101,0.154044,1.58549,1.14608
2.09,0.36693,1.60597,0.8104,0.152706,1.58099,1.14689
2.1,0.360995,1.61066,0.806759,0.151404,1.57656,1.14772
2.11,0.3551,1.61527,0.803177,0.150136,1.57219,1.1485
2.12,0.34919,1.61981,0.799653,0.148906,1.56789,1.14925
2.13,0.34328,1.62443,0.796189,0.147713,1.56367,1.15006
2.14,0.337393,1.629,0.792783,0.146558,1.55951,1.15084
2.15,0.331529,1.63349,0.789437,0.145438,1.55541,1.15159
2.16,0.325645,1.63791,0.786149,0.144351,1.55139,1.1523
2.17,0.319783,1.6424,0.78292,0.143296,1.54744,1.15308
2.18,0.313951,1.64681,0.77975,0.142273,1.54356,1.15382
2.19,0.308082,1.65114,0.776639,0.141281,1.53975,1.15453
2.2,0.302274,1.65538,0.773586,0.140319,1.53601,1.1552
2.21,0.2965,1.65967,0.77059,0.13938,1.53234,1.15593
2.22,0.290692,1.66388,0.767653,0.138454,1.52874,1.15663
2.23,0.284921,1.66794,0.764772,0.137517,1.52521,1.15729
2.24,0.279226,1.67186,0.761949,0.13657,1.52175,1.15791
2.25,0.273546,1.67571,0.759183,0.135611,1.51837,1.15855
2.26,0.267913,1.67951,0.756473,0.134649,1.51505,1.1592
2.27,0.262293,1.68321,0.75382,0.13369,1.51179,1.15981
2.28,0.256749,1.68678,0.751222,0.132739,1.50861,1.1604
2.29,0.251204,1.69023,0.74868,0.131794,1.50551,1.16095
2.3,0.245735,1.69366,0.746193,0.130852,1.50248,1.16153
2.31,0.240268,1.69703,0.743761,0.129917,1.4995,1.16211
2.32,0.234839,1.70029,0.741384,0.128992,1.4966,1.16266
2.33,0.229485,1.7034,0.739061,0.128072,1.49378,1.16318
2.34,0.224168,1.7064,0.736791,0.127162,1.49104,1.16367
2.35,0.218923,1.70933,0.734575,0.12626,1.48836,1.16414
2.36,0.213689,1.71225,0.732411,0.125357,1.48573,1.16465
2.37,0.208527,1.71507,0.730299,0.124453,1.48314,1.16512
2.38,0.20339,1.71778,0.728238,0.123554,1.48062,1.16557
2.39,0.198325,1.72035,0.726226,0.122657,1.47819,1.166
2.4,0.193325,1.72281,0.724265,0.121769,1.47583,1.16639
2.41,0.188334,1.72514,0.722354,0.120885,1.47354,1.16676
2.42,0.183419,1.72745,0.720493,0.120014,1.47132,1.16716
2.43,0.178562,1.72966,0.718681,0.11914,1.46916,1.16754
2.44,0.17374,1.73179,0.716917,0.118283,1.46705,1.16789
2.45,0.168985,1.73379,0.715201,0.117439,1.46503,1.16822
2.46,0.164296,1.73568,0.713532,0.116611,1.46309,1.16853
2.47,0.159684,1.73743,0.71191,0.115773,1.46121,1.16881
2.48,0.155091,1.73909,0.710334,0.114957,1.4594,1.16906
2.49,0.150594,1.74065,0.708804,0.11414,1.45766,1.16929
2.5,0.146164,1.74219,0.707318,0.113345,1.45597,1.16955
2.51,0.141782,1.74363,0.705877,0.112557,1.45433,1.16978
2.52,0.137479,1.74497,0.70448,0.111774,1.45276,1.16999
2.53,0.13323,1.74621,0.703125,0.111005,1.45124,1.17017
2.54,0.129052,1.74731,0.701813,0.110227,1.4498,1.17033
2.55,0.124938,1.74832,0.700542,0.109467,1.44843,1.17046
2.56,0.120898,1.74923,0.699312,0.108719,1.44711,1.17058
2.57,0.116911,1.75001,0.698121,0.10796,1.44586,1.17067
2.58,0.112959,1.75069,0.69697,0.1072,1.44466,1.17074
2.59,0.109085,1.75128,0.695858,0.106452,1.44351,1.17079
2.6,0.10529,1.75184,0.694784,0.105716,1.44243,1.17085
2.61,0.101546,1.7523,0.693748,0.104986,1.44139,1.17089
2.62,0.0978605,1.75266,0.692748,0.104253,1.44041,1.17092
2.63,0.0942665,1.75295,0.691786,0.103535,1.43948,1.17093
2.64,0.0906798,1.75315,0.690859,0.102831,1.43861,1.17091
2.65,0.0871723,1.75327,0.689968,0.102136,1.43779,1.17088
2.66,0.0837474,1.75325,0.689111,0.101431,1.43703,1.17082
2.67,0.0803831,1.75312,0.688289,0.100736,1.43635,1.17075
2.68,0.0770713,1.75292,0.687499,0.100054,1.43572,1.17065
2.69,0.0738414,1.75265,0.686743,0.0993838,1.43513,1.17054
2.7,0.0706485,1.7523,0.686019,0.0987266,1.43458,1.17041
2.71,0.0675209,1.75187,0.685327,0.0980645,1.43409,1.17027
2.72,0.0644463,1.75137,0.684665,0.0974128,1.43364,1.17011
2.73,0.061446,1.7508,0.684034,0.0967747,1.43324,1.16994
2.74,0.0584982,1.75017,0.683433,0.0961489,1.43288,1.16975
2.75,0.0556281,1.74948,0.682862,0.0955341,1.43257,1.16956
2.76,0.0528208,1.74875,0.682318,0.0949304,1.43231,1.16937
2.77,0.0501011,1.74793,0.681803,0.0943187,1.43208,1.16916
2.78,0.0474275,1.74704,0.681314,0.0937153,1.43191,1.16894
2.79,0.0448218,1.74609,0.680852,0.0931191,1.43177,1.1687
2.8,0.0422702,1.74506,0.680415,0.0925235,1.43168,1.16845
2.81,0.0397926,1.74396,0.680003,0.0919317,1.43162,1.16819
2.82,0.0373658,1.7428,0.679615,0.0913439,1.43161,1.16791
2.83,0.034983,1.74157,0.679252,0.090763,1.43164,1.16762
2.84,0.0326567,1.74029,0.678912,0.0901905,1.43171,1.16731
2.85,0.0303945,1.73895,0.678595,0.0896261,1.43181,1.167
2.86,0.0281926,1.73756,0.6783,0.0890686,1.43195,1.16667
2.87,0.0260287,1.73611,0.678027,0.0885187,1.43213,1.16633
2.88,0.0239183,1.73462,0.677776,0.0879743,1.43235,1.16599
2.89,0.021893,1.73306,0.677545,0.0874289,1.4326,1.16563
2.9,0.0198672,1.73145,0.677334,0.0868896,1.43289,1.16526
2.91,0.0178691,1.7298,0.677144,0.0863582,1.4332,1.16489
2.92,0.0159963,1.72811,0.676973,0.085833,1.43356,1.16451
2.93,0.014147,1.72638,0.676821,0.0853147,1.43394,1.16412
2.94,0.0123175,1.72461,0.676687,0.0848055,1.43435,1.16372
2.95,0.0105672,1.7228,0.676571,0.0843022,1.4348,1.16332
2.96,0.00890609,1.72096,0.676472,0.0838048,1.43527,1.16291
2.97,0.0072653,1.71908,0.67639,0.0833122,1.43577,1.16249
2.98,0.00566987,1.71717,0.676324,0.0828266,1.4363,1.16207
2.99,0.00412438,1.71523,0.676274,0.0823473,1.43685,1.16164
3,0.0026095,1.71326,0.676239,0.0818739,1.43743,1.16121
3.01,0.00114483,1.71128,0.676219,0.0814075,1.43802,1.16077
3.02,-0.000237204,1.70928,0.676213,0.080947,1.43863,1.16032
3.03,-0.00157025,1.70724,0.676222,0.0804946,1.43927,1.15988
3.04,-0.00288236,1.70518,0.676243,0.080048,1.43994,1.15943
3.05,-0.00412223,1.70311,0.676277,0.079608,1.44061,1.15897
3.06,-0.00533455,1.70101,0.676324,0.0791674,1.44131,1.15851
3.07,-0.0065006,1.69889,0.676382,0.0787319,1.44203,1.15805
3.08,-0.00761081,1.69675,0.676452,0.078303,1.44278,1.15758
3.09,-0.00866248,1.69459,0.676533,0.0778819,1.44354,1.15712
3.1,-0.0096846,1.69241,0.676624,0.0774651,1.44433,1.15665
3.11,-0.0106414,1.69022,0.676724,0.0770511,1.44512,1.15617
3.12,-0.0115781,1.68802,0.676835,0.0766383,1.44593,1.1557
3.13,-0.0124687,1.68581,0.676954,0.0762291,1.44675,1.15522
3.14,-0.0133186,1.68359,0.677082,0.0758274,1.44758,1.15473
3.15,-0.0141382,1.68136,0.677218,0.0754361,1.44843,1.15425
3.16,-0.0149089,1.67912,0.677362,0.0750446,1.44929,1.15376
3.17,-0.0156406,1.67686,0.677514,0.0746534,1.45016,1.15327
3.18,-0.0163388,1.67459,0.677673,0.0742584,1.45104,1.15278
3.19,-0.0170013,1.6723,0.677838,0.0738586,1.45194,1.15228
3.2,-0.017627,1.67002,0.678011,0.0734612,1.45284,1.15179
3.21,-0.0182036,1.66774,0.678189,0.0730701,1.45374,1.1513
3.22,-0.0187502,1.66545,0.678372,0.0726822,1.45466,1.15081
3.23,-0.0193356,1.66316,0.678562,0.072295,1.45558,1.15031
3.24,-0.0198019,1.66088,0.678756,0.0719106,1.45651,1.14983
3.25,-0.0202383,1.6586,0.678956,0.0715305,1.45744,1.14934
3.26,-0.0206549,1.65633,0.679159,0.0711534,1.45838,1.14885
3.27,-0.0210321,1.65407,0.679367,0.0707789,1.45931,1.14837
3.28,-0.0213715,1.65181,0.679578,0.0704077,1.46025,1.14788
3.29,-0.0216991,1.64957,0.679792,0.0700407,1.4612,1.1474
3.3,-0.0219875,1.64733,0.68001,0.0696768,1.46214,1.14693
3.31,-0.0222494,1.64511,0.68023,0.0693178,1.46309,1.14646
3.32,-0.0224784,1.64291,0.680453,0.0689625,1.46403,1.14599
3.33,-0.0226835,1.64073,0.680678,0.0686103,1.46497,1.14552
3.34,-0.0228617,1.63855,0.680905,0.0682607,1.46591,1.14506
3.35,-0.0229984,1.6364,0.681133,0.0679134,1.46684,1.1446
3.36,-0.0231185,1.63426,0.681363,0.0675681,1.46777,1.14414
3.37,-0.0232019,1.63213,0.681594,0.0672292,1.4687,1.14369
3.38,-0.0232706,1.63005,0.681826,0.0669113,1.46962,1.14324
3.39,-0.0233301,1.62797,0.682058,0.0665937,1.47054,1.1428
3.4,-0.0233544,1.62591,0.682291,0.0662769,1.47146,1.14235
3.41,-0.0233802,1.62387,0.682524,0.0659642,1.47238,1.14192
3.42,-0.0233837,1.62184,0.682757,0.0656558,1.47329,1.14148
3.43,-0.0233542,1.61984,0.68299,0.0653506,1.47419,1.14105
3.44,-0.023288,1.61787,0.683223,0.0650487,1.47509,1.14063
3.45,-0.0232137,1.61591,0.683455,0.0647493,1.47598,1.14021
3.46,-0.0231092,1.61398,0.683686,0.0644627,1.47685,1.13979
3.47,-0.0229862,1.61209,0.683916,0.0641894,1.47772,1.13937
3.48,-0.0228632,1.61022,0.684145,0.0639122,1.47858,1.13897
3.49,-0.0227012,1.60836,0.684372,0.0636339,1.47943,1.13856
3.5,-0.0225114,1.60653,0.684598,0.0633562,1.48027,1.13816
3.51,-0.0223124,1.60471,0.684822,0.06308,1.4811,1.13776
3.52,-0.0221091,1.60292,0.685043,0.0628062,1.48193,1.13737
3.53,-0.0218743,1.60115,0.685263,0.0625347,1.48273,1.13698
3.54,-0.0216204,1.59938,0.68548,0.0622487,1.48353,1.13659
3.55,-0.0213659,1.59764,0.685694,0.0619655,1.48432,1.13621
3.56,-0.0210867,1.59591,0.685906,0.0616729,1.4851,1.13583
3.57,-0.0207986,1.59421,0.686114,0.0613988,1.48587,1.13545
3.58,-0.0204982,1.59254,0.68632,0.0611299,1.48663,1.13508
