time,velocity,ratio,centerX,Xmax,Xmin,Ymax
0,0,0.99998,1.1,0.1,2.1,0.99998
0.01,0.0152847,1.00003,1.09993,0.0999888,2.09991,0.999989
0.02,0.0301648,1.00017,1.0997,0.0999609,2.09965,1.00002
0.03,0.0445842,1.00041,1.09933,0.0999099,2.09921,1.00006
0.04,0.0584789,1.00073,1.09882,0.0998289,2.09861,1.00012
0.05,0.0719039,1.00115,1.09817,0.0997271,2.09783,1.0002
0.06,0.0846939,1.00165,1.09739,0.099587,2.0969,1.0003
0.07,0.0973101,1.00223,1.09648,0.0993985,2.09581,1.00043
0.08,0.109201,1.00288,1.09545,0.0991549,2.09457,1.00058
0.09,0.12069,1.0036,1.0943,0.0988524,2.09318,1.00075
0.1,0.132085,1.00438,1.09304,0.0984871,2.09164,1.00095
0.11,0.142667,1.00524,1.09167,0.0980576,2.08996,1.00116
0.12,0.153111,1.00615,1.09019,0.0975679,2.08813,1.0014
0.13,0.162984,1.00712,1.08862,0.0970176,2.08617,1.00166
0.14,0.172638,1.00818,1.08694,0.096405,2.08407,1.00196
0.15,0.181842,1.00929,1.08517,0.095732,2.08184,1.00228
0.16,0.190523,1.01044,1.08331,0.0949908,2.07948,1.00261
0.17,0.198582,1.01163,1.08137,0.0941738,2.077,1.00294
0.18,0.206426,1.01285,1.07934,0.0932882,2.07439,1.00328
0.19,0.213933,1.01409,1.07724,0.0923387,2.0717,1.00362
0.2,0.22124,1.01534,1.07507,0.0913149,2.06891,1.00397
0.21,0.227938,1.01666,1.07283,0.0902272,2.06601,1.00435
0.22,0.234543,1.018,1.07051,0.0890868,2.06302,1.00473
0.23,0.240542,1.01938,1.06814,0.0879001,2.05991,1.00511
0.24,0.246472,1.02076,1.06571,0.0866591,2.05673,1.00548
0.25,0.251967,1.02214,1.06322,0.0853646,2.05348,1.00585
0.26,0.256961,1.02351,1.06067,0.084027,2.05021,1.0062
0.27,0.261772,1.0249,1.05808,0.082661,2.0469,1.00658
0.28,0.266043,1.02631,1.05544,0.0812661,2.04355,1.00695
0.29,0.270346,1.0277,1.05276,0.0798331,2.04015,1.00732
0.3,0.274065,1.02908,1.05004,0.0783689,2.03673,1.00766
0.31,0.277652,1.03042,1.04728,0.0768598,2.03331,1.00798
0.32,0.28092,1.03173,1.04449,0.0753093,2.02991,1.00831
0.33,0.283844,1.03305,1.04167,0.0737357,2.02651,1.00865
0.34,0.286473,1.03434,1.03882,0.0721399,2.02311,1.00898
0.35,0.288799,1.0356,1.03594,0.0705277,2.01971,1.00929
0.36,0.290888,1.03684,1.03304,0.0689001,2.0163,1.00957
0.37,0.292607,1.03807,1.03013,0.0672763,2.01293,1.00986
0.38,0.293878,1.03929,1.0272,0.065635,2.00959,1.01017
0.39,0.295096,1.0405,1.02425,0.0640003,2.00625,1.01045
0.4,0.296002,1.04169,1.0213,0.0623701,2.00292,1.01072
0.41,0.29669,1.04287,1.01833,0.0607707,1.99958,1.01097
0.42,0.29691,1.04407,1.01537,0.0591721,1.99625,1.01122
0.43,0.296976,1.04525,1.0124,0.0575814,1.99299,1.01149
0.44,0.296815,1.04639,1.00943,0.0559867,1.98974,1.01174
0.45,0.296335,1.04752,1.00646,0.0543911,1.9865,1.01196
0.46,0.295319,1.04865,1.00351,0.0528285,1.98325,1.01217
0.47,0.294344,1.04983,1.00056,0.0512938,1.98002,1.01241
0.48,0.293071,1.05099,0.997622,0.0497671,1.97681,1.01265
0.49,0.291595,1.05215,0.994699,0.0482785,1.97359,1.01286
0.5,0.289825,1.05334,0.991793,0.0468328,1.97037,1.01306
0.51,0.287939,1.05454,0.988904,0.0454103,1.96714,1.01327
0.52,0.285764,1.05577,0.986036,0.0440336,1.96395,1.0135
0.53,0.283435,1.05701,0.983191,0.0427047,1.9608,1.01372
0.54,0.28086,1.05825,0.980369,0.0414101,1.95765,1.01394
0.55,0.277985,1.05951,0.977576,0.0401737,1.95452,1.01414
0.56,0.274961,1.0608,0.974811,0.0389895,1.95141,1.01435
0.57,0.271737,1.06211,0.972078,0.0378303,1.94833,1.01458
0.58,0.268332,1.06342,0.969378,0.0367093,1.9453,1.01482
0.59,0.264749,1.06474,0.966713,0.0356262,1.94228,1.01505
0.6,0.260937,1.06607,0.964085,0.0345987,1.93929,1.01527
0.61,0.256935,1.0674,0.961496,0.0335732,1.93631,1.01549
0.62,0.252797,1.06876,0.958947,0.0325888,1.93339,1.01575
0.63,0.248483,1.07011,0.956441,0.0316468,1.93052,1.016
0.64,0.243985,1.07147,0.953979,0.0307589,1.92769,1.01625
0.65,0.239383,1.07288,0.951562,0.030007,1.92489,1.01649
0.66,0.234645,1.07427,0.949192,0.029269,1.92213,1.01672
0.67,0.229753,1.07567,0.946871,0.0285557,1.91941,1.01697
0.68,0.224714,1.07708,0.944599,0.0278761,1.91675,1.01723
0.69,0.219617,1.07846,0.942377,0.0272057,1.91413,1.01749
0.7,0.214425,1.07981,0.940207,0.02655,1.91156,1.01773
0.71,0.209091,1.08117,0.93809,0.0259572,1.90904,1.01797
0.72,0.203687,1.08251,0.936026,0.0253823,1.90657,1.0182
0.73,0.198201,1.08382,0.934017,0.0248431,1.90416,1.01842
0.74,0.192592,1.08512,0.932063,0.0243143,1.90183,1.01866
0.75,0.18694,1.0864,0.930166,0.0238336,1.89957,1.0189
0.76,0.181292,1.08765,0.928325,0.02336,1.89737,1.01913
0.77,0.175561,1.08888,0.926541,0.0229485,1.89524,1.01935
0.78,0.169815,1.09005,0.924814,0.0225182,1.89316,1.01955
0.79,0.164001,1.09121,0.923145,0.0221584,1.89116,1.01974
0.8,0.158116,1.09231,0.921535,0.0217784,1.88923,1.01992
0.81,0.152189,1.09337,0.919983,0.021449,1.88739,1.02009
0.82,0.146271,1.09441,0.918491,0.0211198,1.88564,1.02027
0.83,0.140327,1.09539,0.917058,0.02079,1.88395,1.02045
0.84,0.134343,1.09636,0.915685,0.0205137,1.88234,1.02061
0.85,0.12846,1.09726,0.914371,0.0202271,1.88079,1.02076
0.86,0.122606,1.09812,0.913116,0.0199571,1.87932,1.0209
0.87,0.116804,1.09894,0.911919,0.0197224,1.87792,1.02102
0.88,0.111074,1.09969,0.910779,0.0194884,1.8766,1.02113
0.89,0.105377,1.10038,0.909697,0.0192494,1.87536,1.02121
0.9,0.0997357,1.10102,0.908672,0.019048,1.87421,1.02129
0.91,0.0941195,1.10159,0.907702,0.0188328,1.87314,1.02135
0.92,0.0884975,1.1021,0.906789,0.0186094,1.87215,1.02139
0.93,0.0829771,1.10256,0.905932,0.0183989,1.87123,1.02143
0.94,0.0775279,1.10299,0.905129,0.0182026,1.87038,1.02146
0.95,0.0721592,1.10337,0.904381,0.018001,1.86959,1.02149
0.96,0.0668693,1.10369,0.903686,0.0177972,1.86888,1.02151
0.97,0.0616918,1.10397,0.903043,0.017602,1.86822,1.02151
0.98,0.0566097,1.1042,0.902451,0.0174141,1.86764,1.02151
0.99,0.0516537,1.10437,0.90191,0.0172207,1.86712,1.02149
1,0.0468165,1.10449,0.901417,0.0170291,1.86667,1.02146
1.01,0.0421081,1.10456,0.900972,0.0168367,1.8663,1.02142
1.02,0.0375045,1.10458,0.900574,0.0166539,1.86598,1.02137
1.03,0.033042,1.10455,0.900221,0.0164708,1.86573,1.0213
1.04,0.0287083,1.10447,0.899912,0.0162839,1.86554,1.02122
1.05,0.0245289,1.10435,0.899645,0.0160984,1.86541,1.02114
1.06,0.0204852,1.10419,0.899419,0.0159147,1.86532,1.02105
1.07,0.0165822,1.104,0.899233,0.0157318,1.86529,1.02095
1.08,0.0128355,1.10378,0.899086,0.0155605,1.8653,1.02085
1.09,0.0092371,1.10353,0.898975,0.0154111,1.86535,1.02074
1.1,0.00579407,1.10326,0.898899,0.0152598,1.86546,1.02062
1.11,0.00250097,1.10295,0.898857,0.0151017,1.86561,1.02051
1.12,-0.000635975,1.10261,0.898847,0.0149475,1.8658,1.02039
1.13,-0.00361752,1.10225,0.898868,0.0147926,1.86602,1.02026
1.14,-0.00645676,1.10186,0.898918,0.0146369,1.86629,1.02013
1.15,-0.00912731,1.10145,0.898995,0.0144818,1.86659,1.02
1.16,-0.0116277,1.10101,0.899098,0.0143243,1.86692,1.01986
1.17,-0.0139801,1.10055,0.899225,0.0141709,1.86727,1.01972
1.18,-0.0161812,1.10008,0.899375,0.0140175,1.86766,1.01958
1.19,-0.0182115,1.0996,0.899546,0.0138665,1.86807,1.01943
1.2,-0.0201045,1.09909,0.899737,0.0137146,1.8685,1.01929
1.21,-0.02185,1.09858,0.899947,0.0135655,1.86895,1.01914
1.22,-0.0234489,1.09805,0.900172,0.0134168,1.86941,1.01899
1.23,-0.0249045,1.09752,0.900414,0.0132669,1.86988,1.01883
1.24,-0.0262247,1.09698,0.900669,0.0131188,1.87037,1.01868
1.25,-0.0274082,1.09643,0.900936,0.012972,1.87087,1.01853
1.26,-0.0284579,1.09589,0.901215,0.0128268,1.87138,1.01838
1.27,-0.0293766,1.09534,0.901504,0.0126826,1.87189,1.01823
1.28,-0.0301694,1.09479,0.901801,0.0125421,1.87242,1.01809
1.29,-0.0308433,1.09425,0.902105,0.0124027,1.87294,1.01794
1.3,-0.0314024,1.09371,0.902416,0.0122696,1.87347,1.0178
1.31,-0.0318652,1.09317,0.902732,0.0121366,1.87401,1.01767
1.32,-0.0322421,1.09263,0.903052,0.0120048,1.87454,1.01753
1.33,-0.0325371,1.0921,0.903375,0.0118757,1.87508,1.0174
1.34,-0.0327309,1.09158,0.903701,0.0117487,1.87561,1.01728
1.35,-0.0328216,1.09107,0.904028,0.0116257,1.87614,1.01716
1.36,-0.032813,1.09057,0.904356,0.0115014,1.87667,1.01704
1.37,-0.0327104,1.09007,0.904683,0.0113771,1.87719,1.01693
1.38,-0.0325162,1.08958,0.905008,0.0112533,1.8777,1.01682
1.39,-0.0322388,1.0891,0.905332,0.0111296,1.87821,1.01671
1.4,-0.0318804,1.08862,0.905652,0.0110056,1.8787,1.01661
1.41,-0.0314537,1.08816,0.905968,0.0108827,1.87918,1.0165
1.42,-0.0309486,1.0877,0.906279,0.0107644,1.87965,1.0164
1.43,-0.0303757,1.08726,0.906586,0.0106466,1.88011,1.0163
1.44,-0.0297401,1.08683,0.906886,0.0105283,1.88055,1.0162
1.45,-0.0290461,1.08641,0.907179,0.01041,1.88098,1.0161
1.46,-0.0282972,1.08599,0.907466,0.0102921,1.8814,1.01601
1.47,-0.027499,1.08559,0.907744,0.0101748,1.88181,1.01591
1.48,-0.0266549,1.0852,0.908015,0.0100582,1.8822,1.01582
1.49,-0.0257686,1.08482,0.908276,0.00994275,1.88257,1.01574
1.5,-0.0248031,1.08446,0.908529,0.00982796,1.88294,1.01565
1.51,-0.0237477,1.0841,0.908771,0.0097134,1.88329,1.01557
1.52,-0.0226639,1.08375,0.909003,0.00959958,1.88364,1.0155
1.53,-0.0215564,1.08342,0.909224,0.00948668,1.88397,1.01543
1.54,-0.020431,1.0831,0.909434,0.00937464,1.88429,1.01536
1.55,-0.019289,1.08277,0.909632,0.00926348,1.88465,1.01531
1.56,-0.0181345,1.08246,0.909819,0.00915325,1.88499,1.01526
1.57,-0.0169728,1.08218,0.909994,0.00904352,1.88528,1.01521
1.58,-0.0158062,1.08192,0.910158,0.008935,1.88555,1.01517
1.59,-0.0146379,1.08168,0.91031,0.0088278,1.88578,1.01513
1.6,-0.0134795,1.08145,0.91045,0.00872194,1.88599,1.01509
1.61,-0.012315,1.08124,0.910579,0.00861739,1.88618,1.01505
1.62,-0.0111586,1.08105,0.910696,0.00851539,1.88635,1.01502
1.63,-0.0100197,1.08087,0.910802,0.00841576,1.8865,1.01499
1.64,-0.00888703,1.08071,0.910896,0.00831805,1.88663,1.01496
1.65,-0.00776869,1.08056,0.910979,0.00822195,1.88675,1.01493
1.66,-0.00666584,1.08043,0.911051,0.00812743,1.88684,1.0149
1.67,-0.00557639,1.0803,0.911112,0.00803424,1.88691,1.01488
1.68,-0.0044996,1.0802,0.911162,0.00794256,1.88697,1.01486
1.69,-0.00343488,1.0801,0.911202,0.00785251,1.88702,1.01485
1.7,-0.00238129,1.08002,0.911231,0.00776395,1.88704,1.01483
1.71,-0.00134367,1.07996,0.911249,0.00767604,1.88706,1.01483
1.72,-0.000320767,1.0799,0.911257,0.00758867,1.88707,1.01482
1.73,0.00068693,1.07985,0.911255,0.00750199,1.88706,1.01482
