time,velocity,ratio,centerX,Xmax,Xmin,Ymax
0,0,1,4.75,3.75,5.75,1
0.01,0.0201352,1.00002,4.7499,3.74992,5.74988,1
0.02,0.0403184,1.00003,4.7496,3.74961,5.74957,1.00001
0.03,0.0604353,1.00009,4.7491,3.74916,5.74903,1.00002
0.04,0.0804782,1.00012,4.74839,3.74846,5.74831,1.00004
0.05,0.100471,1.00016,4.74749,3.74759,5.74737,1.00005
0.06,0.120328,1.0002,4.74638,3.74651,5.74624,1.00006
0.07,0.140122,1.00024,4.74508,3.74525,5.7449,1.00006
0.08,0.159881,1.00022,4.74358,3.74375,5.7434,1.00005
0.09,0.179763,1.00023,4.74189,3.74207,5.74168,1.00004
0.1,0.200205,1.00022,4.73999,3.74017,5.73982,1.00004
0.11,0.221902,1.0001,4.73788,3.73796,5.73789,1.00006
0.12,0.244542,1.00008,4.73555,3.73564,5.7357,1.00011
0.13,0.266717,1.00015,4.73299,3.73312,5.73311,1.00015
0.14,0.286959,1.00029,4.73022,3.73046,5.73013,1.00012
0.15,0.306904,1.00055,4.72725,3.72768,5.72661,1.00002
0.16,0.32658,1.00056,4.72409,3.72464,5.7236,1.00004
0.17,0.347702,1.00043,4.72072,3.72109,5.72051,1.00014
0.18,0.368769,1.00018,4.71713,3.71696,5.71718,1.0003
0.19,0.388561,1.00039,4.71335,3.71343,5.71314,1.00025
0.2,0.408478,1.0006,4.70936,3.70975,5.7087,1.00008
0.21,0.428801,1.00075,4.70518,3.70616,5.70466,1.00001
0.22,0.448673,1.00055,4.70079,3.70147,5.70065,1.00014
0.23,0.468708,1.00039,4.6962,3.69612,5.69586,1.00026
0.24,0.488419,1.00031,4.69142,3.69138,5.69124,1.00024
0.25,0.508823,1.00044,4.68643,3.68666,5.68609,1.00015
0.26,0.528096,1.00079,4.68125,3.68217,5.68074,1.00007
0.27,0.548231,1.00077,4.67587,3.67632,5.675,1.00011
0.28,0.567712,1.00053,4.67029,3.6705,5.66988,1.00022
0.29,0.586189,1.00053,4.66452,3.66495,5.66468,1.00039
0.3,0.608444,1.00088,4.65855,3.65914,5.65804,1.00033
0.31,0.628193,1.00089,4.65236,3.65295,5.65161,1.00022
0.32,0.647287,1.00139,4.64599,3.64693,5.64457,1.00021
0.33,0.666516,1.00118,4.63942,3.64038,5.63875,1.00037
0.34,0.685231,1.00084,4.63266,3.63328,5.63243,1.00041
0.35,0.704879,1.00106,4.62571,3.62605,5.62497,1.00052
0.36,0.723174,1.00113,4.61857,3.61923,5.61773,1.00038
0.37,0.742219,1.00115,4.61124,3.61235,5.61048,1.00022
0.38,0.760485,1.00119,4.60373,3.6049,5.60299,1.00023
0.39,0.77937,1.0012,4.59603,3.5968,5.59518,1.00038
0.4,0.797657,1.0007,4.58815,3.58827,5.58774,1.00043
0.41,0.816684,1.00091,4.58008,3.58046,5.57951,1.00044
0.42,0.834982,1.00142,4.57182,3.57303,5.57087,1.00034
0.43,0.8535,1.00147,4.56338,3.56432,5.56195,1.00028
0.44,0.871155,1.0014,4.55476,3.55572,5.55371,1.00039
0.45,0.889389,1.00154,4.54595,3.54696,5.54516,1.00064
0.46,0.90731,1.00154,4.53697,3.53803,5.53631,1.00067
0.47,0.925147,1.00179,4.52781,3.52896,5.52658,1.0006
0.48,0.94315,1.00226,4.51847,3.51983,5.51644,1.00056
0.49,0.96097,1.00207,4.50895,3.51069,5.5076,1.00053
0.5,0.979167,1.00192,4.49925,3.50057,5.49803,1.00065
0.51,0.997054,1.00188,4.48937,3.49045,5.48831,1.0008
0.52,1.01508,1.00182,4.47931,3.48029,5.47806,1.00071
0.53,1.03337,1.00191,4.46907,3.47043,5.46781,1.0006
0.54,1.0517,1.0022,4.45864,3.46064,5.45725,1.00051
0.55,1.06957,1.00214,4.44804,3.44955,5.44647,1.0006
0.56,1.08742,1.00188,4.43725,3.43838,5.43605,1.00072
0.57,1.10504,1.00185,4.42629,3.42722,5.42522,1.00085
0.58,1.12248,1.00232,4.41515,3.41677,5.41368,1.00077
0.59,1.1403,1.00254,4.40384,3.40548,5.40183,1.00071
0.6,1.15778,1.00279,4.39235,3.39428,5.3902,1.00074
0.61,1.1753,1.00273,4.38068,3.38261,5.37903,1.00094
0.62,1.1926,1.00275,4.36884,3.37077,5.36733,1.00103
0.63,1.21024,1.00283,4.35683,3.35857,5.35509,1.00108
0.64,1.22785,1.00326,4.34464,3.34666,5.3422,1.00102
0.65,1.24532,1.0032,4.33228,3.33466,5.33009,1.00091
0.66,1.26272,1.00315,4.31974,3.32197,5.31752,1.00092
0.67,1.28007,1.00325,4.30702,3.30929,5.30499,1.0011
0.68,1.29761,1.00287,4.29413,3.29566,5.29223,1.00114
0.69,1.31496,1.00292,4.28107,3.28295,5.27924,1.00106
0.7,1.33227,1.00334,4.26784,3.27037,5.26571,1.00101
0.71,1.34959,1.00348,4.25443,3.25706,5.25201,1.00095
0.72,1.36656,1.00324,4.24085,3.24313,5.23876,1.00105
0.73,1.38333,1.00344,4.2271,3.22921,5.2248,1.00123
0.74,1.40021,1.00346,4.21318,3.21541,5.21112,1.00131
0.75,1.41715,1.00374,4.1991,3.20145,5.19645,1.00123
0.76,1.43392,1.0042,4.18484,3.1876,5.18176,1.00127
0.77,1.45066,1.00425,4.17042,3.17343,5.16757,1.0013
0.78,1.46742,1.00412,4.15583,3.15875,5.15341,1.00144
0.79,1.48431,1.00434,4.14107,3.14401,5.13844,1.00155
0.8,1.50057,1.00444,4.12614,3.1289,5.12311,1.00153
0.81,1.51922,1.00445,4.11104,3.11408,5.108,1.00139
0.82,1.53608,1.00462,4.09577,3.09907,5.0927,1.00142
0.83,1.55285,1.00462,4.08032,3.08363,5.07738,1.00148
0.84,1.56959,1.00429,4.06471,3.06739,5.06196,1.00157
0.85,1.58566,1.00443,4.04894,3.05172,5.04609,1.0016
0.86,1.60217,1.00464,4.033,3.0362,5.03003,1.00155
0.87,1.6187,1.00488,4.01689,3.02038,5.0136,1.00147
0.88,1.63541,1.00496,4.00062,3.00403,4.99725,1.00155
0.89,1.65198,1.00495,3.98419,2.98737,4.98095,1.00173
0.9,1.66831,1.00503,3.96759,2.971,4.96463,1.00183
0.91,1.68456,1.00526,3.95082,2.95408,4.94727,1.00184
0.92,1.70073,1.00573,3.9339,2.93765,4.92982,1.00179
0.93,1.71693,1.00579,3.91681,2.92073,4.91279,1.0018
0.94,1.7332,1.0058,3.89956,2.90366,4.89585,1.00188
0.95,1.74989,1.00584,3.88215,2.88616,4.87862,1.00205
0.96,1.76632,1.00598,3.86457,2.86839,4.86064,1.00208
0.97,1.78255,1.00595,3.84682,2.85078,4.84293,1.002
0.98,1.79892,1.00628,3.82892,2.83332,4.82469,1.00194
0.99,1.81507,1.00633,3.81085,2.81537,4.80672,1.00198
1,1.8313,1.00603,3.79262,2.79661,4.78866,1.00203
1.01,1.84725,1.006,3.77422,2.77809,4.77044,1.00216
1.02,1.8632,1.00624,3.75567,2.75992,4.75183,1.00217
1.03,1.87913,1.00649,3.73696,2.74148,4.73277,1.0021
1.04,1.8921,1.00681,3.71811,2.72285,4.71351,1.00211
1.05,1.90825,1.00687,3.69911,2.70376,4.69456,1.00224
1.06,1.9235,1.00674,3.67995,2.68452,4.6758,1.00235
1.07,1.93899,1.007,3.66064,2.66518,4.65619,1.00247
1.08,1.95417,1.00739,3.64117,2.64599,4.63623,1.00247
1.09,1.96972,1.00743,3.62155,2.62654,4.61654,1.00239
1.1,1.9852,1.00754,3.60178,2.60705,4.59686,1.0024
1.11,2.00068,1.00765,3.58185,2.58716,4.57702,1.00254
1.12,2.01633,1.0075,3.56177,2.56673,4.55704,1.00261
1.13,2.03158,1.00752,3.54153,2.54651,4.53675,1.0026
1.14,2.04711,1.00774,3.52114,2.52632,4.51606,1.00257
1.15,2.06244,1.008,3.50059,2.50625,4.49534,1.00251
1.16,2.07755,1.00798,3.47989,2.48535,4.4746,1.00256
1.17,2.09255,1.00796,3.45904,2.46431,4.45391,1.00272
1.18,2.1074,1.00795,3.43804,2.4433,4.43313,1.00283
1.19,2.12218,1.00832,3.41689,2.42255,4.41156,1.00278
1.2,2.137,1.00866,3.3956,2.40156,4.38993,1.0028
1.21,2.15177,1.00883,3.37416,2.38023,4.36838,1.00285
1.22,2.1663,1.00884,3.35257,2.35873,4.34705,1.00295
1.23,2.18108,1.00902,3.33083,2.33689,4.32513,1.00309
1.24,2.19561,1.00911,3.30895,2.31496,4.30312,1.00314
1.25,2.21023,1.00923,3.28692,2.29299,4.2808,1.00307
1.26,2.22478,1.00942,3.26474,2.27114,4.25853,1.00305
1.27,2.23957,1.00946,3.24242,2.24917,4.23652,1.00307
1.28,2.25413,1.00946,3.21996,2.22641,4.21402,1.00321
1.29,2.26839,1.00926,3.19734,2.20343,4.19151,1.00324
1.3,2.2854,1.00967,3.17457,2.1811,4.16841,1.00326
1.31,2.29993,1.00979,3.15164,2.15837,4.14527,1.00318
1.32,2.31453,1.00995,3.12857,2.13542,4.12208,1.00322
1.33,2.32864,1.01011,3.10536,2.1122,4.0988,1.00334
1.34,2.3428,1.01001,3.082,2.08872,4.07575,1.00347
1.35,2.35575,1.01023,3.05851,2.06544,4.05217,1.00353
1.36,2.3698,1.01064,3.03489,2.04202,4.028,1.00355
1.37,2.38374,1.01081,3.01112,2.01847,4.00404,1.00352
1.38,2.39782,1.01097,2.98721,1.99487,3.98024,1.00358
1.39,2.41139,1.01103,2.96317,1.97077,3.95631,1.00372
1.4,2.42546,1.01112,2.93899,1.94644,3.93202,1.00382
1.41,2.43938,1.01111,2.91466,1.92202,3.9075,1.00377
1.42,2.45339,1.0114,2.8902,1.89786,3.88275,1.00376
1.43,2.46717,1.01144,2.8656,1.87366,3.85842,1.00373
1.44,2.48067,1.01152,2.84086,1.84873,3.83348,1.00381
1.45,2.49414,1.01138,2.81599,1.82373,3.80899,1.00392
1.46,2.50732,1.01158,2.79098,1.79875,3.78367,1.00396
1.47,2.52078,1.01172,2.76584,1.7739,3.75852,1.00394
1.48,2.53369,1.01202,2.74057,1.74874,3.73273,1.00392
1.49,2.54665,1.01234,2.71517,1.72363,3.70716,1.004
1.5,2.55959,1.0121,2.68964,1.69785,3.68208,1.00412
1.51,2.57246,1.01238,2.66398,1.6724,3.65628,1.00422
1.52,2.58533,1.01263,2.63819,1.64668,3.6302,1.00429
1.53,2.59797,1.01278,2.61228,1.62093,3.6041,1.00426
1.54,2.61037,1.01311,2.58624,1.59534,3.57785,1.00424
1.55,2.62288,1.01311,2.56007,1.56921,3.55196,1.00437
1.56,2.6356,1.01315,2.53378,1.5427,3.52557,1.00447
1.57,2.64813,1.01324,2.50736,1.51631,3.49902,1.00448
1.58,2.66088,1.01324,2.48082,1.48966,3.4724,1.00449
1.59,2.67358,1.01356,2.45415,1.46349,3.44554,1.00446
1.6,2.68581,1.01363,2.42735,1.43686,3.41879,1.00447
1.61,2.69776,1.01368,2.40043,1.40986,3.3919,1.00458
1.62,2.70968,1.01375,2.3734,1.3827,3.36486,1.0047
1.63,2.72123,1.01385,2.34624,1.35573,3.33774,1.00473
1.64,2.73261,1.01428,2.31898,1.32875,3.30986,1.0047
1.65,2.74366,1.0145,2.29159,1.30153,3.2823,1.00474
1.66,2.75474,1.01447,2.2641,1.27396,3.255,1.00485
1.67,2.76567,1.01472,2.2365,1.24664,3.22744,1.00497
1.68,2.77664,1.01485,2.20879,1.21897,3.19963,1.00503
1.69,2.78876,1.01498,2.18096,1.19109,3.17148,1.00503
1.7,2.79924,1.01521,2.15302,1.16348,3.14345,1.00505
1.71,2.80964,1.01542,2.12498,1.13579,3.11543,1.00508
1.72,2.81981,1.01551,2.09683,1.10767,3.08726,1.00514
1.73,2.82991,1.01546,2.06859,1.07916,3.05901,1.00524
1.74,2.83981,1.01551,2.04024,1.05074,3.03057,1.00527
1.75,2.84956,1.01572,2.01179,1.02264,3.002,1.00524
1.76,2.85907,1.01596,1.98325,0.994329,2.97324,1.00524
1.77,2.86796,1.01614,1.95462,0.965856,2.94457,1.00533
1.78,2.87659,1.01613,1.92589,0.937143,2.91608,1.00543
1.79,2.8847,1.0162,1.89709,0.908364,2.88731,1.00551
1.8,2.8925,1.01657,1.8682,0.879645,2.85793,1.00553
1.81,2.8998,1.01686,1.83924,0.850921,2.82868,1.00556
1.82,2.90682,1.01709,1.81021,0.822108,2.79954,1.00561
1.83,2.91334,1.0173,1.78111,0.793274,2.77053,1.00573
1.84,2.9196,1.01739,1.75195,0.76414,2.74142,1.00583
1.85,2.92523,1.01746,1.72272,0.734861,2.71213,1.00589
1.86,2.93064,1.01768,1.69345,0.705836,2.68266,1.00589
1.87,2.9353,1.01798,1.66412,0.676903,2.65315,1.00589
1.88,2.93941,1.01818,1.63474,0.647778,2.62372,1.00594
1.89,2.9426,1.01835,1.60533,0.618397,2.59426,1.00606
1.9,2.94539,1.01849,1.5759,0.589012,2.56477,1.00615
1.91,2.94722,1.01859,1.54643,0.559718,2.53533,1.00617
1.92,2.94798,1.01884,1.51696,0.530492,2.50562,1.00617
1.93,2.94757,1.01908,1.48748,0.501367,2.47612,1.00622
1.94,2.94587,1.01933,1.45802,0.47211,2.4466,1.00633
1.95,2.94282,1.01963,1.42857,0.442957,2.41711,1.00645
1.96,2.93844,1.02008,1.39917,0.413953,2.38746,1.00657
1.97,2.93257,1.02058,1.36981,0.385096,2.3577,1.0066
1.98,2.92485,1.021,1.34053,0.356237,2.32817,1.00667
1.99,2.91518,1.02143,1.31133,0.327654,2.299,1.0068
2,2.90343,1.02177,1.28223,0.298988,2.26999,1.00695
2.01,2.88946,1.02215,1.25327,0.270398,2.24091,1.00709
2.02,2.87297,1.02277,1.22446,0.242309,2.21186,1.0072
2.03,2.85341,1.02345,1.19582,0.214526,2.1829,1.00726
2.04,2.83026,1.02427,1.16741,0.187365,2.15434,1.00736
2.05,2.80305,1.02536,1.13924,0.160495,2.12575,1.00755
2.06,2.77135,1.02635,1.11137,0.133994,2.09784,1.0078
2.07,2.73455,1.02759,1.08384,0.108228,2.07017,1.00804
2.08,2.69161,1.02929,1.0567,0.083442,2.04262,1.00828
2.09,2.64082,1.03173,1.03004,0.0601784,2.01525,1.00855
2.1,2.58012,1.0353,1.00393,0.0393885,1.9885,1.00896
2.11,2.50645,1.04059,0.978495,0.0221536,1.96237,1.00948
2.12,2.41622,1.04875,0.953875,0.010501,1.93689,1.01015
2.13,2.30407,1.06047,0.930262,0.00534634,1.91199,1.01097
2.14,2.15848,1.07278,0.907924,0.000786603,1.88761,1.01208
2.15,1.96803,1.08769,0.887254,-0,1.86434,1.01391
2.16,1.72757,1.10441,0.868737,-0,1.84251,1.01745
2.17,1.43593,1.12257,0.852874,2.28248e-05,1.82114,1.02216
2.18,1.10067,1.14037,0.840158,-0,1.80167,1.02728
2.19,0.736044,1.15967,0.830956,-0,1.7806,1.03245
2.2,0.362988,1.17479,0.825454,0.000100264,1.76441,1.03635
2.21,-0.00857733,1.18204,0.823676,-0,1.7572,1.03855
2.22,-0.373506,1.18305,0.825592,-0,1.75593,1.03868
2.23,-0.716039,1.17589,0.831045,0.000102881,1.7642,1.0372
2.24,-1.05777,1.15855,0.83993,3.67219e-05,1.78456,1.03372
2.25,-1.3806,1.13803,0.852127,-0,1.80648,1.02791
2.26,-1.67521,1.11496,0.867427,-0,1.83236,1.0215
2.27,-1.91997,1.0925,0.885442,1.91494e-05,1.85823,1.01505
2.28,-2.10496,1.07193,0.90561,0.000249847,1.88567,1.01052
2.29,-2.22722,1.05205,0.92731,2.35512e-05,1.91437,1.007
2.3,-2.29454,1.03499,0.949951,0.000249881,1.94048,1.00406
2.31,-2.31875,1.02002,0.97304,0.000250194,1.96571,1.00241
2.32,-2.30985,1.00554,0.996199,0.000250983,1.99206,1.00142
2.33,-2.27583,0.995594,1.01914,0.00590231,2.01653,1.00088
2.34,-2.22611,0.996708,1.04165,0.0315823,2.0393,1.00055
2.35,-2.17491,1.00037,1.06364,0.0614551,2.06089,1.00009
2.36,-2.13825,1.00436,1.08519,0.0915383,2.08208,0.999614
2.37,-2.11728,1.00684,1.10645,0.120281,2.10324,0.998267
2.38,-2.10542,1.01155,1.12756,0.14555,2.12391,1.00061
2.39,-2.09744,1.01838,1.14857,0.169035,2.14279,1.00502
2.4,-2.09101,1.02041,1.16951,0.191643,2.16831,1.00851
2.41,-2.08342,1.02538,1.19038,0.213307,2.18411,1.01041
2.42,-2.08033,1.03518,1.21119,0.233431,2.18702,1.01116
2.43,-2.07609,1.03842,1.23198,0.252136,2.1979,1.01026
2.44,-2.0713,1.03575,1.25271,0.269495,2.22035,1.0103
2.45,-2.07674,1.03164,1.27343,0.290776,2.25005,1.01063
2.46,-2.09148,1.01985,1.29427,0.304851,2.28154,1.00796
2.47,-2.10945,1.0117,1.31527,0.326646,2.31071,1.00364
2.48,-2.12525,1.00575,1.33644,0.349668,2.33765,0.999709
2.49,-2.12857,0.995485,1.35773,0.359558,2.36287,0.997133
2.5,-2.10994,0.987895,1.37894,0.366437,2.38362,0.996384
2.51,-2.07745,0.986764,1.39988,0.382095,2.40481,0.997971
2.52,-2.03763,0.991882,1.42046,0.408223,2.42126,0.998348
2.53,-1.99494,0.997417,1.44062,0.439878,2.4417,0.998324
2.54,-1.95463,1.00751,1.46036,0.46988,2.45403,0.999528
2.55,-1.9204,1.01607,1.47973,0.495272,2.4699,1.00318
2.56,-1.89463,1.01932,1.49879,0.519162,2.49442,1.00671
2.57,-1.87268,1.02262,1.51762,0.538145,2.51356,1.01005
2.58,-1.85572,1.02794,1.53626,0.556402,2.52282,1.01068
2.59,-1.84461,1.02932,1.55476,0.569293,2.52998,1.00909
2.6,-1.83232,1.02948,1.57314,0.587372,2.54458,1.00745
2.61,-1.82426,1.02376,1.59142,0.600931,2.56826,1.00704
2.62,-1.82376,1.01231,1.60965,0.610778,2.59676,1.00521
2.63,-1.82766,1.00342,1.6279,0.628965,2.6267,1.00229
2.64,-1.82808,0.998075,1.64619,0.651139,2.65222,0.998614
2.65,-1.82228,0.991716,1.66444,0.66746,2.67459,0.995251
2.66,-1.80473,0.985283,1.68259,0.675987,2.69435,0.994326
2.67,-1.77622,0.985716,1.7005,0.685452,2.7068,0.996239
2.68,-1.74227,0.989051,1.71809,0.703836,2.72256,0.99831
2.69,-1.70327,0.995426,1.73532,0.728856,2.73683,0.999397
2.7,-1.66147,1.00769,1.75215,0.757497,2.74445,1.00111
2.71,-1.62288,1.0176,1.76856,0.783286,2.75479,1.00311
2.72,-1.59321,1.02136,1.78463,0.80392,2.77401,1.00609
2.73,-1.57144,1.02462,1.80045,0.823285,2.79341,1.00932
2.74,-1.55338,1.02398,1.81607,0.834449,2.80787,1.01037
2.75,-1.54081,1.02275,1.83154,0.844414,2.81562,1.00802
2.76,-1.53007,1.0215,1.84689,0.857568,2.82647,1.00561
2.77,-1.51903,1.01582,1.86214,0.867047,2.84268,1.00345
2.78,-1.51154,1.00396,1.87728,0.872565,2.86785,1.0016
2.79,-1.50833,0.995771,1.89238,0.884704,2.89293,0.999866
2.8,-1.50082,0.990909,1.90743,0.902757,2.91607,0.997504
2.81,-1.48612,0.98662,1.92237,0.922276,2.93803,0.994393
2.82,-1.46518,0.985439,1.93713,0.934474,2.95109,0.993626
2.83,-1.43675,0.98769,1.95165,0.944165,2.95981,0.995418
2.84,-1.40415,0.990354,1.96585,0.954258,2.97029,0.998292
2.85,-1.36997,0.997735,1.97973,0.972934,2.97959,1.00105
2.86,-1.33362,1.00909,1.99325,0.996547,2.98468,1.0031
2.87,-1.29867,1.01818,2.0064,1.01762,2.99009,1.00416
2.88,-1.27012,1.02397,2.01924,1.03862,3.00318,1.00583
2.89,-1.25037,1.02489,2.03184,1.05424,3.02162,1.00818
2.9,-1.23477,1.02108,2.04426,1.06171,3.03763,1.00879
2.91,-1.22216,1.01584,2.05654,1.06705,3.04958,1.00696
2.92,-1.21188,1.01282,2.06871,1.07476,3.05681,1.00372
2.93,-1.19988,1.00689,2.08077,1.08178,3.0691,1.00051
2.94,-1.18783,0.997142,2.09271,1.08528,3.08716,0.998078
2.95,-1.17732,0.98955,2.10453,1.09081,3.10653,0.99733
2.96,-1.16523,0.985584,2.11625,1.10468,3.12637,0.996274
2.97,-1.14408,0.983245,2.1278,1.12181,3.14512,0.9947
2.98,-1.11853,0.98657,2.13912,1.13883,3.15416,0.994132
2.99,-1.09077,0.991139,2.15017,1.1491,3.15854,0.995817
3,-1.06045,0.99534,2.16093,1.15643,3.16297,0.998594
3.01,-1.03051,1.0019,2.17138,1.16861,3.1694,1.0023
3.02,-1.00062,1.01106,2.18154,1.18399,3.17178,1.00489
3.03,-0.971982,1.01806,2.1914,1.19919,3.17459,1.00554
3.04,-0.946794,1.02348,2.20099,1.21703,3.18252,1.00582
3.05,-0.928199,1.02404,2.21035,1.23026,3.19624,1.00662
3.06,-0.914983,1.01751,2.21957,1.23626,3.21461,1.0065
3.07,-0.902001,1.00955,2.22865,1.23656,3.22773,1.0051
3.08,-0.891107,1.00452,2.23762,1.23978,3.23496,1.0021
3.09,-0.876917,0.997963,2.24646,1.24339,3.24411,0.998324
3.1,-0.861578,0.991241,2.25516,1.24554,3.25443,0.995647
3.11,-0.844768,0.986283,2.26369,1.24862,3.26651,0.995103
3.12,-0.827591,0.982688,2.27205,1.2557,3.28109,0.995166
3.13,-0.804893,0.982971,2.28022,1.27018,3.29539,0.995362
3.14,-0.776703,0.988547,2.28812,1.28794,3.30273,0.99586
3.15,-0.749233,0.995072,2.29575,1.29915,3.3032,0.997089
3.16,-0.721913,1.00134,2.30311,1.30661,3.30305,0.999558
3.17,-0.696366,1.00764,2.3102,1.31371,3.30491,1.0032
3.18,-0.670372,1.01323,2.31704,1.32088,3.30647,1.00593
3.19,-0.644939,1.01754,2.32361,1.32959,3.308,1.00655
3.2,-0.623748,1.021,2.32995,1.34071,3.31136,1.00602
3.21,-0.603556,1.02029,2.33608,1.35139,3.32136,1.00497
3.22,-0.59338,1.01296,2.34206,1.35581,3.33806,1.00397
3.23,-0.583735,1.00462,2.34795,1.35427,3.35034,1.00265
3.24,-0.569068,0.997091,2.35372,1.35226,3.35893,1.00042
3.25,-0.553661,0.991144,2.35933,1.35314,3.36466,0.996852
3.26,-0.537503,0.986802,2.36479,1.35405,3.3695,0.994425
3.27,-0.518509,0.984758,2.37007,1.35539,3.37366,0.993752
3.28,-0.497289,0.982849,2.37515,1.35753,3.38177,0.994764
3.29,-0.477408,0.985095,2.38003,1.36876,3.39126,0.996174
3.3,-0.452448,0.991459,2.38468,1.38281,3.39575,0.997873
3.31,-0.427207,0.999739,2.38907,1.3954,3.39402,0.999051
3.32,-0.406327,1.00672,2.39324,1.40252,3.39104,1.00095
3.33,-0.380378,1.01298,2.39718,1.40701,3.38871,1.00371
3.34,-0.355084,1.01538,2.40086,1.40828,3.39058,1.00639
3.35,-0.334109,1.01605,2.4043,1.40858,3.39078,1.00701
3.36,-0.314842,1.01727,2.40754,1.41316,3.39067,1.00583
3.37,-0.293775,1.01538,2.41059,1.42061,3.39702,1.0034
3.38,-0.275454,1.00807,2.41343,1.42298,3.40963,1.00133
3.39,-0.260596,0.999554,2.41611,1.42016,3.4215,1.00022
3.4,-0.242746,0.991554,2.41863,1.41462,3.42887,0.998616
3.41,-0.220662,0.985387,2.42095,1.41164,3.43339,0.996102
3.42,-0.19542,0.984268,2.42303,1.41322,3.43303,0.994018
3.43,-0.176904,0.98465,2.42489,1.41202,3.43023,0.993616
3.44,-0.159868,0.985753,2.42657,1.41124,3.42923,0.994619
3.45,-0.141719,0.989067,2.42808,1.41642,3.4334,0.997462
3.46,-0.119766,0.99624,2.4294,1.42806,3.43542,0.999906
3.47,-0.095318,1.00362,2.43047,1.4375,3.43317,1.00144
3.48,-0.0751677,1.01192,2.43132,1.44394,3.42549,1.00258
3.49,-0.0587795,1.01694,2.43199,1.44643,3.42186,1.00445
3.5,-0.0462471,1.01713,2.43251,1.44455,3.42243,1.00588
3.51,-0.0341817,1.01453,2.43291,1.43775,3.42196,1.00652
3.52,-0.0216282,1.01256,2.43319,1.4343,3.41969,1.00517
3.53,-0.00536845,1.00834,2.43333,1.43472,3.42266,1.00225
3.54,0.012529,1.00245,2.4333,1.43733,3.43084,0.999203
