time,velocity,ratio,centerX,Xmax,Xmin,Ymax
0,0,1,2,1,3,1
0.01,0.018918,1,1.99991,0.999914,2.9999,1
0.02,0.0378098,1.00002,1.99963,0.999649,2.99961,1.00001
0.03,0.0566689,1.00005,1.99917,0.999208,2.99913,1.00001
0.04,0.0754934,1.00009,1.99851,0.998589,2.99845,1.00002
0.05,0.0942791,1.00014,1.99767,0.99779,2.99758,1.00004
0.06,0.113021,1.0002,1.99664,0.996817,2.99652,1.00005
0.07,0.131721,1.00026,1.99542,0.995674,2.99527,1.00006
0.08,0.150378,1.00035,1.99401,0.994364,2.99381,1.00007
0.09,0.168988,1.00044,1.99242,0.992857,2.99218,1.0001
0.1,0.187242,1.00059,1.99065,0.991212,2.99033,1.00015
0.11,0.205652,1.00074,1.98869,0.9894,2.9883,1.00019
0.12,0.224079,1.00091,1.98655,0.987405,2.98608,1.00025
0.13,0.242332,1.00111,1.98422,0.985255,2.98366,1.00031
0.14,0.260669,1.00134,1.98171,0.98295,2.98103,1.00038
0.15,0.278552,1.0016,1.97902,0.980488,2.9782,1.00045
0.16,0.296421,1.0019,1.97615,0.977863,2.97515,1.00054
0.17,0.314494,1.00225,1.9731,0.975077,2.9719,1.00066
0.18,0.332541,1.00264,1.96987,0.972131,2.96843,1.00079
0.19,0.350264,1.00308,1.96647,0.969048,2.96475,1.00092
0.2,0.368183,1.00355,1.96288,0.965814,2.96084,1.00105
0.21,0.385816,1.00409,1.95912,0.962441,2.95673,1.00122
0.22,0.403497,1.00468,1.95517,0.958929,2.95243,1.00142
0.23,0.421084,1.0053,1.95106,0.95524,2.94791,1.00162
0.24,0.438517,1.00597,1.94676,0.951421,2.94318,1.00182
0.25,0.455931,1.00674,1.9423,0.94741,2.93819,1.00209
0.26,0.473128,1.00759,1.93766,0.943296,2.93294,1.00238
0.27,0.490116,1.00852,1.93285,0.939075,2.92745,1.00265
0.28,0.506808,1.00951,1.92787,0.934732,2.92177,1.00297
0.29,0.523666,1.01059,1.92272,0.930268,2.91591,1.00333
0.3,0.539656,1.01171,1.91741,0.925605,2.90975,1.00369
0.31,0.556104,1.01301,1.91194,0.920901,2.90329,1.00409
0.32,0.572218,1.01439,1.9063,0.916066,2.89663,1.00453
0.33,0.588518,1.01582,1.9005,0.911137,2.88978,1.00497
0.34,0.604973,1.01738,1.89454,0.906003,2.88259,1.00547
0.35,0.620678,1.01909,1.88842,0.900831,2.87515,1.00601
0.36,0.636368,1.02085,1.88214,0.895557,2.86749,1.00653
0.37,0.651815,1.02279,1.8757,0.89014,2.85955,1.00714
0.38,0.666914,1.02482,1.86911,0.884601,2.8513,1.00776
0.39,0.681946,1.02694,1.86237,0.879028,2.84293,1.00841
0.4,0.696809,1.02927,1.85548,0.87331,2.83414,1.00911
0.41,0.711428,1.03165,1.84845,0.867458,2.8251,1.0098
0.42,0.725854,1.03425,1.84126,0.861614,2.81587,1.01059
0.43,0.739912,1.03696,1.83394,0.855603,2.80622,1.01136
0.44,0.753699,1.03978,1.82648,0.8495,2.79643,1.01219
0.45,0.767169,1.0428,1.81888,0.843374,2.78632,1.01305
0.46,0.780538,1.04589,1.81114,0.837071,2.77598,1.01394
0.47,0.793289,1.0492,1.80328,0.830797,2.76538,1.01488
0.48,0.806067,1.05271,1.79528,0.824403,2.75433,1.01582
0.49,0.818534,1.0562,1.78717,0.817846,2.74331,1.01684
0.5,0.830632,1.06,1.77892,0.811316,2.73177,1.01784
0.51,0.842402,1.0639,1.77056,0.804596,2.72007,1.01893
0.52,0.853956,1.06798,1.76209,0.797909,2.70807,1.02
0.53,0.865213,1.07219,1.75349,0.791128,2.69597,1.02117
0.54,0.876181,1.0766,1.74479,0.784245,2.6834,1.02231
0.55,0.886653,1.0812,1.73598,0.777352,2.67071,1.02355
0.56,0.896919,1.08586,1.72707,0.7703,2.65776,1.02476
0.57,0.906722,1.09074,1.71805,0.76336,2.64475,1.02606
0.58,0.916395,1.09571,1.70894,0.756165,2.63136,1.02734
0.59,0.925339,1.10095,1.69973,0.74909,2.61786,1.02871
0.6,0.934193,1.10631,1.69044,0.741838,2.604,1.03006
0.61,0.942815,1.11179,1.68106,0.734673,2.59023,1.0315
0.62,0.951159,1.11734,1.67159,0.727305,2.57618,1.03291
0.63,0.959005,1.1231,1.66204,0.720073,2.56212,1.0344
0.64,0.966781,1.12895,1.65242,0.712624,2.54776,1.03589
0.65,0.974395,1.13502,1.64271,0.705286,2.53333,1.03743
0.66,0.981829,1.14111,1.63294,0.697773,2.51878,1.03898
0.67,0.988907,1.14741,1.62309,0.690343,2.50414,1.04058
0.68,0.99556,1.15368,1.61317,0.682728,2.48946,1.0422
0.69,1.00194,1.16023,1.60318,0.675248,2.47463,1.04385
0.7,1.00802,1.16665,1.59313,0.667555,2.45993,1.04553
0.71,1.01394,1.17331,1.58303,0.660004,2.44509,1.04723
0.72,1.01962,1.17992,1.57286,0.65225,2.43029,1.04897
0.73,1.02521,1.18675,1.56264,0.644654,2.4154,1.05072
0.74,1.03034,1.19368,1.55237,0.636878,2.40037,1.05253
0.75,1.03537,1.20067,1.54204,0.629207,2.38544,1.05433
0.76,1.04001,1.20779,1.53166,0.621418,2.37039,1.0562
0.77,1.04444,1.21497,1.52125,0.613672,2.35537,1.05806
0.78,1.04853,1.2223,1.51078,0.60593,2.34035,1.05998
0.79,1.05239,1.22961,1.50028,0.598065,2.32531,1.06192
0.8,1.05628,1.23701,1.48974,0.590344,2.3104,1.06386
0.81,1.0599,1.24443,1.47916,0.582402,2.29542,1.06587
0.82,1.06331,1.25195,1.46855,0.574692,2.28058,1.06784
0.83,1.06658,1.25951,1.4579,0.566777,2.26575,1.06994
0.84,1.06964,1.26709,1.44722,0.558926,2.25097,1.07198
0.85,1.07254,1.27469,1.43651,0.551026,2.23628,1.07409
0.86,1.07523,1.28245,1.42578,0.543068,2.22146,1.07623
0.87,1.07776,1.29024,1.41501,0.535257,2.20679,1.07834
0.88,1.07996,1.29806,1.40423,0.527272,2.19215,1.08056
0.89,1.08211,1.30607,1.39342,0.519464,2.17747,1.08274
0.9,1.08416,1.31402,1.38259,0.511579,2.16295,1.08497
0.91,1.08597,1.32211,1.37174,0.503694,2.14842,1.08725
0.92,1.08766,1.33021,1.36087,0.495954,2.13405,1.0895
0.93,1.0893,1.33824,1.34999,0.488063,2.11983,1.09185
0.94,1.09076,1.34654,1.33909,0.480317,2.1055,1.09419
0.95,1.09194,1.35451,1.32818,0.472416,2.09146,1.09651
0.96,1.09302,1.36267,1.31726,0.464558,2.07745,1.09892
0.97,1.09391,1.37102,1.30633,0.456818,2.0634,1.10132
0.98,1.0945,1.37924,1.29539,0.448977,2.04947,1.10373
0.99,1.09516,1.38778,1.28444,0.441304,2.03553,1.10621
1,1.09553,1.39625,1.27349,0.433576,2.02165,1.10868
1.01,1.09585,1.40474,1.26253,0.425914,2.00788,1.11113
1.02,1.09602,1.41355,1.25157,0.418376,1.99406,1.11366
1.03,1.09605,1.42204,1.24062,0.410662,1.98047,1.11617
1.04,1.09588,1.43056,1.22966,0.403047,1.96699,1.11866
1.05,1.0956,1.43936,1.2187,0.395461,1.95341,1.12123
1.06,1.09531,1.44805,1.20775,0.387841,1.94,1.1238
1.07,1.09488,1.45676,1.1968,0.380371,1.92671,1.12632
1.08,1.09425,1.46559,1.18585,0.372881,1.91337,1.12886
1.09,1.09353,1.47457,1.17492,0.365537,1.90013,1.13144
1.1,1.09263,1.48383,1.16399,0.358334,1.88683,1.13401
1.11,1.09161,1.49266,1.15307,0.350943,1.87376,1.13652
1.12,1.09051,1.50159,1.14216,0.343678,1.86085,1.13908
1.13,1.08929,1.51062,1.13126,0.336443,1.84796,1.14166
1.14,1.08786,1.51973,1.12037,0.329157,1.83498,1.14422
1.15,1.08621,1.52903,1.10951,0.322118,1.82206,1.14673
1.16,1.08447,1.53835,1.09865,0.315171,1.80929,1.14924
1.17,1.08255,1.54782,1.08782,0.308241,1.79655,1.15181
1.18,1.08059,1.55723,1.077,0.3014,1.78398,1.15435
1.19,1.07848,1.5666,1.06621,0.294495,1.77139,1.15685
1.2,1.07622,1.57597,1.05544,0.287687,1.75892,1.15931
1.21,1.07377,1.58549,1.04469,0.280959,1.74648,1.16179
1.22,1.07121,1.59516,1.03396,0.274332,1.73412,1.16429
1.23,1.06851,1.60514,1.02326,0.267949,1.72173,1.16676
1.24,1.06564,1.615,1.01259,0.261626,1.70956,1.16921
1.25,1.06267,1.62477,1.00195,0.255208,1.69741,1.17163
1.26,1.05955,1.63473,0.991341,0.248894,1.68523,1.17401
1.27,1.05625,1.64482,0.980762,0.242638,1.67311,1.17643
1.28,1.05299,1.65473,0.970216,0.236494,1.66129,1.17882
1.29,1.04934,1.66524,0.959705,0.230714,1.64937,1.1812
1.3,1.04561,1.67588,0.94923,0.224962,1.63742,1.18356
1.31,1.04164,1.68642,0.938794,0.219153,1.62555,1.18589
1.32,1.03753,1.69687,0.928398,0.213509,1.61394,1.18818
1.33,1.03322,1.70729,0.918044,0.207822,1.60241,1.19048
1.34,1.02874,1.718,0.907734,0.202325,1.59091,1.19279
1.35,1.02407,1.72942,0.89747,0.197226,1.57925,1.19505
1.36,1.01921,1.74087,0.887254,0.192164,1.5677,1.19731
1.37,1.01413,1.75191,0.877087,0.187072,1.55648,1.19954
1.38,1.00889,1.76311,0.866972,0.182177,1.54537,1.20173
1.39,1.00347,1.7748,0.85691,0.177312,1.53404,1.20396
1.4,0.997846,1.78615,0.846903,0.172479,1.52305,1.20616
1.41,0.992,1.79794,0.836954,0.168106,1.51224,1.20833
1.42,0.985948,1.8103,0.827064,0.163894,1.50122,1.21048
1.43,0.979877,1.82274,0.817235,0.159617,1.49016,1.21261
1.44,0.97342,1.8351,0.807469,0.155492,1.4794,1.21475
1.45,0.966786,1.84742,0.797768,0.151421,1.46888,1.21694
1.46,0.959934,1.8602,0.788134,0.147386,1.45812,1.21912
1.47,0.952725,1.87327,0.77857,0.143754,1.44761,1.22124
1.48,0.945382,1.88661,0.76908,0.140349,1.43718,1.22331
1.49,0.937762,1.90038,0.759664,0.136976,1.42659,1.22538
1.5,0.929719,1.91428,0.750326,0.13363,1.41608,1.22748
1.51,0.92158,1.92805,0.741069,0.130391,1.40592,1.22964
1.52,0.913164,1.94209,0.731895,0.127176,1.39569,1.23178
1.53,0.904486,1.95647,0.722807,0.124169,1.38553,1.2339
1.54,0.895515,1.97086,0.713807,0.121545,1.37578,1.23596
1.55,0.886278,1.98574,0.704898,0.11895,1.36592,1.23808
1.56,0.876991,2.00102,0.696083,0.116402,1.35601,1.24025
1.57,0.867065,2.016,0.687362,0.113931,1.34641,1.24234
1.58,0.856934,2.03133,0.678742,0.11146,1.33672,1.24446
1.59,0.846494,2.04672,0.670225,0.109081,1.3272,1.24658
1.6,0.835752,2.06252,0.661814,0.10702,1.31793,1.24876
1.61,0.824615,2.07923,0.653513,0.105203,1.30848,1.25094
1.62,0.813201,2.09519,0.645324,0.103353,1.29948,1.25306
1.63,0.801498,2.11148,0.63725,0.101538,1.29044,1.25517
1.64,0.789425,2.12824,0.629296,0.0998237,1.28149,1.25743
1.65,0.776987,2.14447,0.621464,0.0981558,1.27292,1.25962
1.66,0.764228,2.16104,0.613758,0.0964913,1.26432,1.26186
1.67,0.751096,2.17795,0.606182,0.0950047,1.25587,1.26415
1.68,0.737591,2.19587,0.59874,0.0938089,1.24728,1.26644
1.69,0.723696,2.21357,0.591436,0.0926389,1.23892,1.26869
1.7,0.709599,2.23086,0.584271,0.0914376,1.23083,1.27091
1.71,0.69505,2.24913,0.577248,0.0903451,1.22266,1.27336
1.72,0.680091,2.26674,0.570371,0.0892806,1.21485,1.27568
1.73,0.66459,2.28419,0.563645,0.0879433,1.207,1.27806
1.74,0.648755,2.29946,0.557077,0.085607,1.1993,1.28044
1.75,0.632395,2.31406,0.550672,0.0829786,1.19174,1.28287
1.76,0.615617,2.32799,0.544435,0.0801945,1.18442,1.28532
1.77,0.598488,2.34142,0.53837,0.0772223,1.1773,1.28787
1.78,0.580867,2.35416,0.532473,0.0741548,1.17026,1.2902
1.79,0.56281,2.36679,0.526753,0.0710255,1.1635,1.29283
1.8,0.544138,2.37905,0.521217,0.0678719,1.1568,1.2953
1.81,0.524998,2.39085,0.515874,0.0647,1.15039,1.29786
1.82,0.505412,2.40291,0.510726,0.0615391,1.14384,1.30033
1.83,0.485407,2.41425,0.505771,0.0584073,1.13776,1.30291
1.84,0.464875,2.42581,0.501018,0.0553123,1.13161,1.30544
1.85,0.443928,2.43621,0.496473,0.0522695,1.12596,1.30786
1.86,0.422466,2.44732,0.492142,0.0493082,1.12014,1.31034
1.87,0.400598,2.45807,0.48803,0.04644,1.11459,1.31279
1.88,0.378433,2.46826,0.484135,0.0437266,1.1093,1.31506
1.89,0.355988,2.47815,0.480461,0.0411524,1.10427,1.31728
1.9,0.333087,2.48766,0.477014,0.0386896,1.09947,1.31943
1.91,0.309841,2.49762,0.473798,0.0364603,1.09461,1.32143
1.92,0.286294,2.50632,0.470816,0.0343192,1.09038,1.32341
1.93,0.262284,2.51511,0.468074,0.0323091,1.08611,1.32521
1.94,0.238062,2.52367,0.465573,0.0304678,1.08204,1.32692
1.95,0.213506,2.53194,0.463314,0.0286882,1.07824,1.32871
1.96,0.189012,2.54032,0.461301,0.0271061,1.07451,1.33037
1.97,0.164635,2.54844,0.459532,0.0256585,1.07097,1.33195
1.98,0.140448,2.5549,0.458006,0.0242773,1.06797,1.33326
1.99,0.116548,2.56158,0.456721,0.0231551,1.06487,1.33422
2,0.0929993,2.56732,0.455672,0.0220136,1.06189,1.33485
2.01,0.0697025,2.57217,0.454857,0.0209849,1.0592,1.33524
2.02,0.04683,2.57502,0.454272,0.0202041,1.05739,1.33538
2.03,0.0245203,2.57879,0.453914,0.0195834,1.05516,1.33527
2.04,0.00262393,2.58137,0.453776,0.0190044,1.05325,1.33489
2.05,-0.0188155,2.5835,0.453855,0.018505,1.05136,1.33418
2.06,-0.0397648,2.58371,0.454146,0.0180693,1.05004,1.33315
2.07,-0.0603763,2.58377,0.454644,0.017648,1.04873,1.33204
2.08,-0.0803168,2.58369,0.455345,0.0174356,1.0476,1.33081
2.09,-0.0997905,2.58238,0.456243,0.0172153,1.0468,1.32939
2.1,-0.118552,2.57994,0.457332,0.0170801,1.04641,1.32781
2.11,-0.136772,2.57621,0.458606,0.0169547,1.04644,1.32608
2.12,-0.154509,2.57259,0.460059,0.0168399,1.0463,1.32419
2.13,-0.171589,2.56982,0.461686,0.0168718,1.04584,1.32214
2.14,-0.188235,2.5654,0.463482,0.0169623,1.04587,1.31977
2.15,-0.204482,2.55828,0.465442,0.0169478,1.0467,1.3172
2.16,-0.220218,2.55139,0.467562,0.0171758,1.04757,1.31447
2.17,-0.235417,2.54472,0.469837,0.0172935,1.04829,1.3118
2.18,-0.25005,2.53647,0.47226,0.0174958,1.04944,1.30874
2.19,-0.264419,2.52792,0.474829,0.0177124,1.05074,1.30571
2.2,-0.278302,2.51914,0.477538,0.0179624,1.05225,1.30276
2.21,-0.291954,2.50747,0.480386,0.0181641,1.05453,1.29933
2.22,-0.304976,2.49585,0.483368,0.0185181,1.05707,1.29604
2.23,-0.31761,2.48189,0.486477,0.0186568,1.0603,1.29263
2.24,-0.329983,2.46804,0.489711,0.0190316,1.06366,1.28909
2.25,-0.342055,2.45288,0.493067,0.019247,1.06749,1.28561
2.26,-0.353796,2.43888,0.496543,0.0195642,1.07076,1.28187
2.27,-0.365076,2.42431,0.500134,0.0198931,1.07445,1.27829
2.28,-0.376107,2.40899,0.503837,0.0201436,1.07823,1.27446
2.29,-0.386976,2.39378,0.507649,0.0204467,1.08208,1.27066
2.3,-0.397504,2.37907,0.511568,0.0206537,1.08568,1.26688
2.31,-0.407651,2.36321,0.515591,0.0209864,1.08987,1.263
2.32,-0.417576,2.34659,0.519714,0.0213143,1.09446,1.25911
2.33,-0.427322,2.33042,0.523935,0.0215705,1.09875,1.25514
2.34,-0.436841,2.31338,0.528253,0.0217989,1.10357,1.25128
2.35,-0.446093,2.29668,0.532665,0.0220785,1.10819,1.24722
2.36,-0.455156,2.2786,0.537168,0.0223275,1.11354,1.24322
2.37,-0.464035,2.25861,0.541762,0.0225998,1.11991,1.2392
2.38,-0.472658,2.23827,0.546442,0.0228113,1.12658,1.23526
2.39,-0.481078,2.21773,0.551208,0.0229734,1.13323,1.23112
2.4,-0.489393,2.19582,0.556057,0.0232271,1.14088,1.22708
2.41,-0.497515,2.17235,0.560989,0.0235152,1.14954,1.22306
2.42,-0.50554,2.15043,0.566,0.0236717,1.15743,1.21903
2.43,-0.513367,2.12798,0.571092,0.0239117,1.16577,1.21492
2.44,-0.521059,2.10459,0.576261,0.0241067,1.17473,1.2108
2.45,-0.528555,2.08227,0.581507,0.0243562,1.1834,1.20672
2.46,-0.535948,2.05871,0.586826,0.0245502,1.19277,1.20251
2.47,-0.54319,2.03429,0.592219,0.0247355,1.20285,1.19831
2.48,-0.55027,2.01082,0.597684,0.0248462,1.21254,1.19412
2.49,-0.557288,1.98801,0.603218,0.0250826,1.22223,1.18997
2.5,-0.564125,1.96333,0.608823,0.0251873,1.23302,1.18569
2.51,-0.57085,1.93861,0.614495,0.0253041,1.24429,1.18157
2.52,-0.577513,1.91568,0.620233,0.025429,1.25469,1.17743
2.53,-0.584054,1.89204,0.626038,0.0255226,1.2658,1.17332
2.54,-0.590458,1.86725,0.631909,0.0256772,1.2779,1.16911
2.55,-0.596722,1.84398,0.637842,0.0258339,1.28954,1.16512
2.56,-0.602891,1.82126,0.643837,0.0259432,1.30093,1.16104
2.57,-0.608949,1.79748,0.649893,0.0261016,1.31347,1.15701
2.58,-0.614892,1.7744,0.65601,0.0262676,1.32575,1.1529
2.59,-0.620704,1.7522,0.662185,0.0264199,1.33785,1.14895
2.6,-0.626384,1.72929,0.668418,0.0266668,1.35077,1.14488
2.61,-0.631902,1.70724,0.674706,0.0269308,1.36339,1.14083
2.62,-0.637192,1.68565,0.681049,0.0272287,1.37599,1.13677
2.63,-0.642286,1.66361,0.687444,0.0276475,1.38934,1.13266
2.64,-0.647191,1.64268,0.693889,0.02797,1.40212,1.12864
2.65,-0.651842,1.62242,0.700381,0.0285383,1.41489,1.12462
2.66,-0.656288,1.6013,0.706919,0.0290903,1.42869,1.12059
2.67,-0.660443,1.58174,0.7135,0.0296717,1.44154,1.1166
2.68,-0.664299,1.56256,0.720121,0.030297,1.45457,1.11276
2.69,-0.667884,1.54254,0.726779,0.0309477,1.46862,1.10883
2.7,-0.671189,1.52414,0.733472,0.0316221,1.48162,1.105
2.71,-0.674158,1.50583,0.740195,0.0323217,1.49493,1.10122
2.72,-0.676804,1.48744,0.746947,0.0330645,1.5088,1.09753
2.73,-0.679072,1.47042,0.753724,0.0338372,1.52162,1.09384
2.74,-0.68109,1.45272,0.760523,0.034524,1.53542,1.09019
2.75,-0.68267,1.43622,0.767339,0.0352946,1.54848,1.08664
2.76,-0.683865,1.41988,0.77417,0.035879,1.5616,1.08317
2.77,-0.684675,1.40332,0.781011,0.0364495,1.57528,1.07974
2.78,-0.685066,1.38806,0.787857,0.0369073,1.5878,1.07636
2.79,-0.685099,1.37218,0.794707,0.0373197,1.60137,1.07308
2.8,-0.684642,1.35748,0.801554,0.0376998,1.61392,1.06984
2.81,-0.683745,1.3424,0.808394,0.0378103,1.62718,1.06678
2.82,-0.682366,1.32803,0.815224,0.0379598,1.63984,1.06367
2.83,-0.680567,1.31394,0.822037,0.0379448,1.65255,1.06075
2.84,-0.678335,1.29996,0.82883,0.0378326,1.66539,1.05788
2.85,-0.675629,1.28658,0.835599,0.0376791,1.67781,1.05508
2.86,-0.672462,1.27318,0.842338,0.0373289,1.69054,1.05241
2.87,-0.668824,1.26049,0.849043,0.0369837,1.70261,1.04975
2.88,-0.664834,1.24758,0.85571,0.0364683,1.71534,1.04726
2.89,-0.660294,1.23547,0.862335,0.0359127,1.72721,1.04477
2.9,-0.655332,1.22323,0.868912,0.0353128,1.73968,1.04242
2.91,-0.649944,1.21174,0.875437,0.0345342,1.75131,1.04014
2.92,-0.644105,1.20003,0.881907,0.0338032,1.76365,1.03793
2.93,-0.637877,1.18915,0.888316,0.0328739,1.77501,1.03583
2.94,-0.63119,1.17811,0.894661,0.031984,1.78695,1.03377
2.95,-0.624062,1.1678,0.900936,0.0310958,1.79812,1.03177
2.96,-0.616555,1.15734,0.907139,0.0301456,1.80979,1.02983
2.97,-0.60864,1.1476,0.913264,0.0292211,1.82066,1.02792
2.98,-0.600339,1.13774,0.919309,0.0282441,1.83201,1.02611
2.99,-0.591666,1.12853,0.925268,0.0273207,1.84262,1.02432
3,-0.582612,1.11918,0.931139,0.0263899,1.85374,1.02257
3.01,-0.5732,1.11053,0.936917,0.02554,1.86405,1.02086
3.02,-0.563401,1.10179,0.942599,0.0247596,1.87474,1.01914
3.03,-0.553347,1.09369,0.948182,0.0239823,1.88468,1.01751
3.04,-0.542879,1.08535,0.953663,0.0232464,1.89514,1.01583
3.05,-0.532107,1.07768,0.959037,0.0225634,1.90477,1.01421
3.06,-0.52104,1.06983,0.964302,0.0217914,1.91485,1.01262
3.07,-0.509581,1.06255,0.969454,0.0210852,1.92404,1.01099
3.08,-0.497899,1.05513,0.974491,0.0203377,1.93378,1.00946
3.09,-0.48588,1.04826,0.979409,0.0197349,1.94269,1.00788
3.1,-0.473556,1.04115,0.984206,0.0190589,1.95214,1.00631
3.11,-0.460966,1.03452,0.988878,0.0183519,1.96092,1.00481
3.12,-0.44805,1.02787,0.993422,0.0176825,1.96982,1.00328
3.13,-0.434941,1.02145,0.997837,0.0170846,1.9785,1.00174
3.14,-0.421472,1.01536,1.00212,0.0164772,1.98675,1.00027
3.15,-0.407867,1.0092,1.00626,0.0158223,1.99513,0.998757
3.16,-0.393898,1.00351,1.01027,0.0152611,2.00285,0.997281
3.17,-0.379752,0.997806,1.01414,0.014751,2.01078,0.995823
3.18,-0.365277,0.992359,1.01787,0.0142566,2.0184,0.994413
3.19,-0.350631,0.987158,1.02144,0.0136607,2.02555,0.993025
3.2,-0.335756,0.982012,1.02488,0.0130907,2.03271,0.991646
3.21,-0.320671,0.977146,1.02816,0.0125056,2.03942,0.990296
3.22,-0.305384,0.972587,1.03129,0.0119536,2.04574,0.989017
3.23,-0.289962,0.968145,1.03426,0.0113503,2.05196,0.987801
3.24,-0.274295,0.963951,1.03709,0.0106627,2.05766,0.986603
3.25,-0.258566,0.959977,1.03975,0.00998667,2.063,0.98542
3.26,-0.242622,0.956161,1.04226,0.00922594,2.06811,0.98431
3.27,-0.22653,0.952685,1.0446,0.00839808,2.07268,0.983303
3.28,-0.210271,0.949455,1.04678,0.00754568,2.07679,0.982327
3.29,-0.193888,0.946369,1.04881,0.00646515,2.08048,0.981391
3.3,-0.177476,0.943555,1.05066,0.00536687,2.08378,0.980547
3.31,-0.160891,0.941068,1.05235,0.00448411,2.08681,0.979808
3.32,-0.144327,0.938798,1.05388,0.00339621,2.08926,0.979103
3.33,-0.127578,0.936357,1.05524,0.0016851,2.09154,0.978426
3.34,-0.110827,0.934428,1.05643,0.000557184,2.09345,0.977829
3.35,-0.0939982,0.933003,1.05746,7.47513e-05,2.09512,0.977344
3.36,-0.0771985,0.931977,1.05831,-0,2.09641,0.976904
3.37,-0.0603584,0.931076,1.059,-0,2.09757,0.976499
3.38,-0.0434193,0.930362,1.05952,-0,2.09852,0.97619
3.39,-0.0266087,0.929832,1.05987,-0,2.09925,0.975977
3.4,-0.0097208,0.92943,1.06005,4.46929e-05,2.09982,0.975796
3.41,0.00719661,0.929172,1.06006,0.000153677,2.1003,0.975699
