time,velocity,ratio,centerX,Xmax,Xmin,Ymax
0,0,1,8.5,7.5,9.5,1
0.01,0.0198922,1.00005,8.4999,7.49994,9.49986,1.00001
0.02,0.039974,1.00012,8.4996,7.49968,9.49953,1.00004
0.03,0.0606636,1.00015,8.4991,7.49921,9.49901,1.00005
0.04,0.0803154,1.0001,8.49839,7.49846,9.49833,1.00004
0.05,0.098581,1.00005,8.4975,7.49752,9.49744,1.00001
0.06,0.116245,1.00002,8.49642,7.49643,9.4964,1
0.07,0.134369,1.00007,8.49517,7.49524,9.4951,1.00001
0.08,0.152982,1.0001,8.49374,7.49382,9.49363,1.00001
0.09,0.172611,1.00005,8.49211,7.49219,9.49203,0.999971
0.1,0.198773,0.999923,8.49027,7.49024,9.49038,0.999993
0.11,0.244779,1.00007,8.48806,7.48822,9.48827,1.00009
0.12,0.304447,1.00053,8.48533,7.48587,9.48527,1.00023
0.13,0.343851,1.00081,8.48203,7.4826,9.48153,1.00027
0.14,0.359827,1.00021,8.47851,7.47874,9.47835,1.00001
0.15,0.379909,0.999405,8.47482,7.47454,9.4753,0.999783
0.16,0.420821,0.99937,8.47084,7.4706,9.47161,0.999878
0.17,0.464276,1.00038,8.46637,7.46679,9.46642,1.0002
0.18,0.483313,1.00115,8.46164,7.46241,9.46059,1.00024
0.19,0.511602,1.00039,8.45668,7.45685,9.45665,1.00028
0.2,0.548109,0.999996,8.45136,7.45187,9.45156,0.999843
0.21,0.560237,0.999428,8.44582,7.44518,9.44615,0.999915
0.22,0.588535,0.999962,8.4401,7.43986,9.43984,0.999954
0.23,0.621416,1.00076,8.43402,7.43487,9.4342,1.00042
0.24,0.642552,1.00117,8.4277,7.42849,9.42637,1.00011
0.25,0.678257,0.999741,8.42111,7.42034,9.42156,1.00035
0.26,0.702775,1.00036,8.41417,7.41535,9.41366,0.999513
0.27,0.732245,0.999067,8.40702,7.4059,9.40821,1.00022
0.28,0.751559,1.00094,8.39958,7.4001,9.39777,0.999767
0.29,0.775025,1.00039,8.39196,7.39254,9.39298,1.00061
0.3,0.786974,1.00121,8.38411,7.38476,9.38223,0.999937
0.31,0.811451,0.999659,8.37614,7.37556,9.37663,1.0002
0.32,0.840713,0.999954,8.36787,7.3686,9.36798,0.999644
0.33,0.868755,0.99965,8.35935,7.35895,9.35985,1.0001
0.34,0.885896,1.00078,8.35057,7.35028,9.34894,1.00011
0.35,0.904401,1.00099,8.3416,7.34307,9.34182,1.00037
0.36,0.916356,1.00032,8.33253,7.33222,9.33206,1.00024
0.37,0.929777,1.00019,8.32323,7.32307,9.3223,0.999803
0.38,0.946252,0.999054,8.31388,7.31374,9.31559,0.999981
0.39,0.972403,1.00034,8.30428,7.30499,9.30389,0.999794
0.4,0.998239,1.00065,8.29444,7.2939,9.29381,1.0006
0.41,1.0205,1.00165,8.28434,7.28695,9.28376,1.00006
0.42,1.03674,0.999769,8.27404,7.27282,9.27424,1.00048
0.43,1.06393,1.00031,8.26353,7.26455,9.26301,0.999544
0.44,1.07355,0.999122,8.25288,7.25223,9.25433,1.00017
0.45,1.09627,1.00091,8.242,7.2427,9.24058,0.999844
0.46,1.11238,1.00062,8.23094,7.23145,9.23152,1.00065
0.47,1.12814,1.00143,8.21976,7.2215,9.2185,0.999928
0.48,1.1359,0.999562,8.20846,7.20706,9.20856,1.00031
0.49,1.15639,0.999975,8.19698,7.19812,9.19739,0.999608
0.5,1.1764,0.999421,8.18532,7.18479,9.18628,1.00017
0.51,1.20249,1.00118,8.17344,7.17388,9.17168,1.00009
0.52,1.22246,1.00114,8.16131,7.16274,9.16157,1.00055
0.53,1.24396,1.0011,8.14895,7.14952,9.14778,1.00023
0.54,1.26375,1.00019,8.1364,7.13607,9.13589,1.00009
0.55,1.28374,0.999872,8.12368,7.1244,9.1245,0.999921
0.56,1.29802,0.999994,8.11077,7.11015,9.11017,1.00001
0.57,1.31272,1.00082,8.09773,7.0975,9.09657,1.00036
0.58,1.32558,1.00171,8.08453,7.08697,9.08391,1.00018
0.59,1.33748,1.00065,8.07119,7.0704,9.06998,1.00044
0.6,1.35176,1.00038,8.05772,7.05802,9.05704,0.999892
0.61,1.36806,0.999275,8.04413,7.04421,9.04589,1.00011
0.62,1.38556,1.00053,8.03036,7.03032,9.02883,0.999785
0.63,1.39967,1.00058,8.01645,7.01636,9.01641,1.00061
0.64,1.41339,1.00166,8.0024,7.00474,9.00181,1.0002
0.65,1.42979,1.00058,7.98819,6.98726,8.98723,1.00056
0.66,1.45287,1.00095,7.97378,6.97517,8.97283,0.999778
0.67,1.47301,0.999583,7.95914,6.95913,8.96052,1.00028
0.68,1.49497,1.00066,7.94429,6.94416,8.94271,0.999931
0.69,1.51321,1.0006,7.92924,6.92982,8.92962,1.0005
0.7,1.533,1.00151,7.91401,6.91597,8.9132,1.00013
0.71,1.55009,1.00057,7.89859,6.89807,8.89782,1.00045
0.72,1.571,1.00056,7.88298,6.8841,8.88293,0.999979
0.73,1.5878,1.00013,7.86718,6.86741,8.86746,1.00016
0.74,1.60341,1.00096,7.85122,6.85133,8.84979,1.00019
0.75,1.62099,1.00094,7.8351,6.83633,8.83519,1.00037
0.76,1.64343,1.00082,7.81876,6.81919,8.81829,1.00037
0.77,1.66238,1.00111,7.80223,6.80291,8.80094,1.00012
0.78,1.68285,1.00045,7.7855,6.78623,8.78582,1.00024
0.79,1.70245,1.00072,7.76857,6.76888,8.76764,1.0001
0.8,1.72061,1.0008,7.75146,6.75142,8.75087,1.00052
0.81,1.73792,1.00173,7.73417,6.73611,8.73295,1.00015
0.82,1.75384,1.00056,7.71672,6.71626,8.71626,1.00056
0.83,1.77154,1.00089,7.69909,6.69986,8.69816,1.00004
0.84,1.78882,1.00021,7.68129,6.6814,8.68178,1.0004
0.85,1.80293,1.0013,7.66332,6.66368,8.66117,1.00004
0.86,1.81884,1.00098,7.64521,6.64576,8.64505,1.00062
0.87,1.83509,1.00145,7.62694,6.62844,8.62591,1.00018
0.88,1.85059,1.00044,7.60853,6.60782,8.6079,1.00048
0.89,1.86885,1.001,7.58994,6.59125,8.58929,1.00002
0.9,1.88545,1.00046,7.57116,6.57177,8.57163,1.00039
0.91,1.90217,1.0014,7.55222,6.55232,8.55007,1.00027
0.92,1.91939,1.00143,7.53311,6.5348,8.53303,1.00054
0.93,1.93602,1.00132,7.51385,6.51506,8.51303,1.0003
0.94,1.95269,1.00048,7.4944,6.49403,8.49374,1.00033
0.95,1.97194,1.00052,7.47478,6.47569,8.47507,1.00021
0.96,1.99108,1.0011,7.45496,6.45622,8.45447,1.00023
0.97,2.00877,1.00161,7.43496,6.43523,8.43299,1.00049
0.98,2.02439,1.00166,7.41479,6.41688,8.41456,1.00051
0.99,2.04244,1.00087,7.39445,6.3946,8.39403,1.00059
1,2.06004,1.00122,7.37394,6.37461,8.37224,1.00003
1.01,2.07341,1.00046,7.35327,6.35401,8.35371,1.00031
1.02,2.08777,1.00111,7.33246,6.3333,8.33169,1.00031
1.03,2.10045,1.00149,7.31152,6.31155,8.31006,1.00074
1.04,2.11095,1.00232,7.29046,6.29308,8.28895,1.00025
1.05,2.12649,1.00077,7.26928,6.26916,8.26885,1.00061
1.06,2.1432,1.00092,7.24793,6.24846,8.2469,1.00013
1.07,2.15777,1.0005,7.22642,6.22679,8.2266,1.00041
1.08,2.17346,1.0018,7.20477,6.20607,8.20292,1.00022
1.09,2.18831,1.00165,7.18296,6.18375,8.18204,1.00079
1.1,2.20474,1.00177,7.16099,6.16251,8.15996,1.00049
1.11,2.22132,1.00107,7.13887,6.13908,8.13788,1.00047
1.12,2.2361,1.00115,7.11658,6.11786,8.11575,1.00009
1.13,2.25054,1.00052,7.09415,6.09446,8.0943,1.00044
1.14,2.26525,1.00144,7.07157,6.07224,8.07035,1.00049
1.15,2.28272,1.00225,7.04884,6.05087,8.04767,1.00064
1.16,2.29839,1.00187,7.02593,6.02747,8.0248,1.00054
1.17,2.31318,1.00112,7.00287,6.0032,8.00179,1.00042
1.18,2.32753,1.0007,6.97967,5.98065,7.97996,1.00035
1.19,2.34198,1.00135,6.95632,5.95727,7.95509,1.00025
1.2,2.35573,1.00164,6.93284,5.93362,7.93165,1.00065
1.21,2.37127,1.00226,6.9092,5.91147,7.90819,1.00062
1.22,2.3839,1.00136,6.88543,5.88591,7.88458,1.0007
1.23,2.40046,1.00163,6.86151,5.86242,7.85957,1.00021
1.24,2.41593,1.00081,6.83743,5.8386,7.83791,1.00046
1.25,2.43089,1.00157,6.81319,5.81381,7.81143,1.00038
1.26,2.44272,1.00159,6.78883,5.78928,7.78769,1.0008
1.27,2.46002,1.00249,6.76431,5.76693,7.76289,1.00047
1.28,2.47636,1.00138,6.73963,5.74008,7.73872,1.0007
1.29,2.49355,1.00153,6.71478,5.71548,7.71307,1.00032
1.3,2.50977,1.001,6.68977,5.691,7.69012,1.00056
1.31,2.52402,1.00199,6.66459,5.66559,7.66242,1.0004
1.32,2.5377,1.00198,6.63929,5.64028,7.63801,1.00084
1.33,2.55202,1.00207,6.61384,5.61586,7.61301,1.00064
1.34,2.56667,1.00144,6.58825,5.58879,7.587,1.00054
1.35,2.5825,1.00165,6.5625,5.56367,7.56112,1.00037
1.36,2.59553,1.00131,6.53661,5.53801,7.53646,1.00053
1.37,2.60847,1.00186,6.51059,5.51133,7.50896,1.00067
1.38,2.62209,1.00239,6.48444,5.48622,7.48289,1.00073
1.39,2.63588,1.00204,6.45816,5.45998,7.45731,1.0007
1.4,2.65089,1.0016,6.43172,5.43264,7.43031,1.00043
1.41,2.66588,1.00129,6.40514,5.40604,7.40465,1.00059
1.42,2.67839,1.0019,6.37842,5.37996,7.37711,1.00047
1.43,2.68928,1.00213,6.35158,5.35277,7.35008,1.00078
1.44,2.70241,1.00238,6.32462,5.3265,7.32317,1.00071
1.45,2.71683,1.0018,6.29753,5.29859,7.29666,1.00083
1.46,2.73194,1.00196,6.27029,5.27166,7.26848,1.00037
1.47,2.74548,1.00135,6.24289,5.24411,7.24261,1.0006
1.48,2.75863,1.00214,6.21537,5.21664,7.21349,1.00056
1.49,2.77102,1.00243,6.18773,5.18918,7.18632,1.001
1.5,2.78295,1.00262,6.15996,5.16221,7.15828,1.00065
1.51,2.79727,1.00159,6.13207,5.13282,7.13104,1.0007
1.52,2.81305,1.00183,6.10401,5.10532,7.10261,1.00048
1.53,2.82691,1.00176,6.07581,5.07734,7.07527,1.00072
1.54,2.83883,1.00237,6.04748,5.04848,7.04505,1.00065
1.55,2.85291,1.00257,6.01903,5.02102,7.01775,1.00093
1.56,2.86861,1.0025,5.99042,4.99245,6.98911,1.00083
1.57,2.88354,1.00184,5.96166,4.96245,6.96002,1.00063
1.58,2.89918,1.00163,5.93275,4.9339,6.93165,1.0005
1.59,2.91205,1.00205,5.90369,4.90575,6.90295,1.00065
1.6,2.92271,1.0026,5.87452,4.87539,6.87209,1.00094
1.61,2.93495,1.00287,5.84524,4.84764,6.84366,1.00088
1.62,2.94953,1.00223,5.81582,4.81759,6.81484,1.00086
1.63,2.96565,1.00209,5.78625,4.78739,6.78438,1.00058
1.64,2.98099,1.00166,5.75651,4.75773,6.75583,1.0007
1.65,2.99389,1.00224,5.72664,4.72874,6.72545,1.00059
1.66,3.00555,1.00269,5.69664,4.69774,6.69439,1.00101
1.67,3.01736,1.00319,5.66652,4.66917,6.66457,1.00088
1.68,3.03255,1.00223,5.63627,4.63778,6.63521,1.00095
1.69,3.04816,1.00219,5.60587,4.60714,6.60379,1.00051
1.7,3.06222,1.00186,5.57532,4.57671,6.57456,1.00078
1.71,3.07381,1.00262,5.54464,4.54664,6.54292,1.00075
1.72,3.08524,1.00293,5.51385,4.51538,6.51174,1.0011
1.73,3.09909,1.00314,5.48293,4.48551,6.481,1.00088
1.74,3.11395,1.00235,5.45186,4.45349,6.45063,1.00092
1.75,3.12803,1.00215,5.42065,4.42196,6.41897,1.00065
1.76,3.1405,1.00202,5.38931,4.39094,6.38843,1.00076
1.77,3.15206,1.00274,5.35785,4.35969,6.35596,1.00087
1.78,3.16384,1.00331,5.32628,4.32874,6.3243,1.00108
1.79,3.17644,1.00288,5.29458,4.29666,6.29295,1.00102
1.8,3.18986,1.00241,5.26275,4.26443,6.26119,1.00078
1.81,3.20318,1.00225,5.23078,4.23242,6.22941,1.00075
1.82,3.21415,1.00253,5.19869,4.20084,6.19731,1.00076
1.83,3.22343,1.0027,5.16651,4.16787,6.16455,1.00104
1.84,3.23452,1.00347,5.13421,4.13722,6.13226,1.00098
1.85,3.24775,1.00285,5.1018,4.10374,6.10016,1.00106
1.86,3.26219,1.00263,5.06925,4.07101,6.06724,1.00073
1.87,3.27604,1.00213,5.03656,4.0382,6.0357,1.00088
1.88,3.28831,1.00278,5.00374,4.00595,6.00198,1.00079
1.89,3.29934,1.00301,4.9708,3.97214,5.9685,1.00118
1.9,3.31195,1.00348,4.93775,3.94089,5.93597,1.00101
1.91,3.32503,1.0027,4.90457,3.90616,5.90293,1.00108
1.92,3.3391,1.00277,4.87125,3.87296,5.86895,1.00076
1.93,3.35123,1.00247,4.8378,3.83984,5.83676,1.00092
1.94,3.36216,1.00295,4.80423,3.80629,5.80216,1.00088
1.95,3.37337,1.00324,4.77055,3.77216,5.76808,1.0012
1.96,3.38603,1.00345,4.73676,3.7398,5.73506,1.00107
1.97,3.39978,1.0028,4.70283,3.70448,5.70096,1.00104
1.98,3.41324,1.00267,4.66877,3.67026,5.66662,1.00085
1.99,3.42497,1.00283,4.63458,3.63703,5.63322,1.00092
2,3.43598,1.00323,4.60027,3.60232,5.598,1.00106
2.01,3.44716,1.00353,4.56586,3.56796,5.56327,1.00118
2.02,3.46029,1.00314,4.53133,3.53381,5.5299,1.00118
2.03,3.47479,1.00304,4.49665,3.49864,5.49446,1.00094
2.04,3.48791,1.00285,4.46184,3.46361,5.4598,1.00094
2.05,3.49956,1.00307,4.4269,3.42947,5.42521,1.00094
2.06,3.5091,1.00326,4.39186,3.39373,5.38977,1.00128
2.07,3.52053,1.00386,4.35671,3.35937,5.354,1.00117
2.08,3.53319,1.00314,4.32145,3.32375,5.31982,1.00117
2.09,3.5465,1.00315,4.28605,3.28831,5.28376,1.00086
2.1,3.5582,1.00283,4.25053,3.25244,5.24899,1.0011
2.11,3.56747,1.00328,4.2149,3.21727,5.21282,1.00105
2.12,3.57522,1.00357,4.17919,3.18131,5.17676,1.00129
2.13,3.58557,1.00402,4.14338,3.14653,5.14074,1.00112
2.14,3.59684,1.00303,4.10748,3.10946,5.10587,1.00123
2.15,3.60859,1.00302,4.07145,3.07342,5.06923,1.00092
2.16,3.61898,1.00304,4.03531,3.03763,5.03373,1.00108
2.17,3.62747,1.00373,3.99908,3.00161,4.9964,1.00111
2.18,3.63625,1.00378,3.96276,2.96517,4.96035,1.00137
2.19,3.64776,1.00384,3.92635,2.92941,4.9242,1.00122
2.2,3.66094,1.00314,3.88981,2.89166,4.88768,1.00114
2.21,3.67295,1.00316,3.85314,2.85528,4.85098,1.001
2.22,3.68343,1.0034,3.81635,2.81921,4.81461,1.0011
2.23,3.69171,1.00365,3.77948,2.78156,4.77689,1.00131
2.24,3.70076,1.00406,3.74252,2.74529,4.73981,1.00131
2.25,3.71269,1.00378,3.70546,2.70847,4.70354,1.0013
2.26,3.72506,1.00335,3.66827,2.67028,4.66572,1.00106
2.27,3.73642,1.00306,3.63096,2.63299,4.62913,1.00112
2.28,3.74632,1.0036,3.59355,2.59654,4.59164,1.00114
2.29,3.75467,1.0039,3.55605,2.5582,4.55324,1.00141
2.3,3.765,1.00435,3.51845,2.52159,4.5155,1.00129
2.31,3.77611,1.00357,3.48075,2.48355,4.47915,1.00136
2.32,3.78842,1.00345,3.44293,2.44501,4.44024,1.00106
2.33,3.7988,1.00329,3.40499,2.40723,4.4031,1.00122
2.34,3.80742,1.00383,3.36696,2.37005,4.36474,1.00116
2.35,3.81579,1.00413,3.32885,2.33129,4.32603,1.0015
2.36,3.82486,1.00434,3.29064,2.2937,4.28774,1.00135
2.37,3.83604,1.00363,3.25234,2.25512,4.25054,1.00133
2.38,3.84691,1.00358,3.21393,2.2161,4.21114,1.00109
2.39,3.856,1.00355,3.17541,2.17807,4.17345,1.00124
2.4,3.86326,1.00401,3.13682,2.13968,4.13435,1.00133
2.41,3.87083,1.00434,3.09815,2.10103,4.09534,1.00148
2.42,3.88078,1.00429,3.0594,2.06242,4.05667,1.0014
2.43,3.89225,1.00367,3.02054,2.0233,4.01851,1.00127
2.44,3.90249,1.00363,2.98156,1.98379,3.97898,1.00122
2.45,3.91134,1.00373,2.94249,1.94531,3.94034,1.00124
2.46,3.91912,1.00413,2.90335,1.90597,3.90065,1.00145
2.47,3.92808,1.00459,2.86411,1.86738,3.86115,1.00146
2.48,3.93805,1.00425,2.82478,1.82776,3.82226,1.00149
2.49,3.94852,1.00378,2.78535,1.78795,3.78289,1.00124
2.5,3.95733,1.0038,2.74582,1.74839,3.74344,1.00132
2.51,3.96483,1.00409,2.70621,1.70938,3.7038,1.00129
2.52,3.97158,1.00429,2.66653,1.66909,3.66363,1.00155
2.53,3.98035,1.00464,2.62678,1.63031,3.62397,1.00146
2.54,3.99057,1.00421,2.58693,1.58992,3.58449,1.00148
2.55,4.001,1.00394,2.54697,1.54953,3.5442,1.00126
2.56,4.00939,1.00394,2.50692,1.50972,3.5046,1.00137
2.57,4.01644,1.00432,2.46679,1.47005,3.46423,1.0014
2.58,4.02328,1.00454,2.42659,1.42923,3.42338,1.0016
2.59,4.03149,1.00467,2.38632,1.38996,3.38365,1.0015
2.6,4.04094,1.00424,2.34596,1.34903,3.34354,1.00148
2.61,4.04907,1.00407,2.30551,1.30805,3.30258,1.00132
2.62,4.05563,1.00426,2.26499,1.26822,3.26259,1.00144
2.63,4.05953,1.00447,2.22441,1.22762,3.22172,1.00151
2.64,4.06356,1.00482,2.1838,1.1868,3.1804,1.00161
2.65,4.06909,1.00461,2.14314,1.14665,3.14059,1.00157
2.66,4.07544,1.00436,2.10242,1.10565,3.0998,1.00142
2.67,4.08134,1.00417,2.06164,1.06419,3.05873,1.00144
2.68,4.08526,1.0045,2.0208,1.02428,3.01818,1.00143
2.69,4.08714,1.00466,1.97994,0.983238,2.97725,1.00165
2.7,4.08957,1.00511,1.93906,0.942399,2.93545,1.00161
2.71,4.09221,1.00458,1.89816,0.90161,2.8957,1.00162
2.72,4.09481,1.00451,1.85722,0.860561,2.85443,1.00144
2.73,4.09503,1.00433,1.81627,0.819061,2.81347,1.00152
2.74,4.09283,1.00482,1.77533,0.77903,2.77243,1.00151
2.75,4.08887,1.00486,1.73443,0.737742,2.73155,1.00175
2.76,4.08524,1.00531,1.69356,0.697292,2.68997,1.00163
2.77,4.0819,1.00466,1.65273,0.656229,2.65027,1.00167
2.78,4.07797,1.00462,1.61193,0.615255,2.60899,1.00147
2.79,4.06994,1.0047,1.57119,0.574576,2.56838,1.00159
2.8,4.05994,1.00514,1.53054,0.534379,2.52742,1.00164
2.81,4.04559,1.00528,1.49001,0.493724,2.48679,1.00179
2.82,4.02974,1.00551,1.44964,0.45386,2.44636,1.00173
2.83,4.01337,1.00499,1.40942,0.413209,2.40662,1.00169
2.84,3.99416,1.005,1.36939,0.373031,2.36623,1.00159
2.85,3.9689,1.00525,1.32957,0.333909,2.32678,1.00167
2.86,3.9395,1.00559,1.29003,0.29429,2.28675,1.0018
2.87,3.90297,1.00606,1.25081,0.255509,2.24723,1.00189
2.88,3.85981,1.00614,1.212,0.217161,2.20879,1.00192
2.89,3.81175,1.00613,1.17364,0.178868,2.17034,1.00184
2.9,3.7554,1.00627,1.1358,0.141007,2.13229,1.00189
2.91,3.68592,1.00689,1.09858,0.105374,2.0955,1.00192
2.92,3.59708,1.00786,1.06216,0.0694627,2.05824,1.00221
2.93,3.48411,1.00956,1.02674,0.0366608,2.02243,1.00238
2.94,3.32814,1.01323,0.992632,0.00904535,1.98832,1.00273
2.95,3.07519,1.02638,0.960511,-0,1.9547,1.00313
2.96,2.52615,1.04505,0.932129,1.46382e-05,1.92366,1.00516
2.97,1.55098,1.06852,0.911449,1.65342e-05,1.89542,1.01264
2.98,0.273683,1.09052,0.902145,2.12952e-05,1.86671,1.01783
2.99,-0.969755,1.08434,0.905717,-0,1.87618,1.0172
3,-2.0793,1.05919,0.92107,2.2039e-07,1.90674,1.00979
3.01,-2.83766,1.0341,0.946089,2.05861e-06,1.94035,1.00325
3.02,-3.13537,1.01415,0.976221,-0,1.97407,1.00101
3.03,-3.16795,1.00083,1.00787,0.00599154,2.00687,1.00127
3.04,-3.09516,1.00346,1.03919,0.0405342,2.03483,1.0006
3.05,-3.08988,1.00379,1.07004,0.0754313,2.06906,1.00059
3.06,-3.12989,1.00571,1.10113,0.108843,2.10159,1.00206
3.07,-3.15383,1.00997,1.1326,0.137309,2.12314,1.00282
3.08,-3.16227,1.0079,1.16413,0.168841,2.15899,1.00294
3.09,-3.23365,1.00383,1.19608,0.202473,2.19559,1.00038
3.1,-3.21777,0.999421,1.22843,0.225081,2.22756,1.00066
3.11,-3.16404,1.00297,1.2603,0.262009,2.25555,0.999735
3.12,-3.14977,1.00428,1.29183,0.297839,2.29364,1.00217
3.13,-3.16114,1.00878,1.32338,0.329225,2.31609,1.00216
3.14,-3.15375,1.00672,1.35496,0.355452,2.34796,1.00295
3.15,-3.17017,1.00384,1.38654,0.393078,2.38583,1.0002
3.16,-3.17273,0.998452,1.41831,0.415854,2.41933,1.00019
3.17,-3.12814,1.00174,1.44982,0.449256,2.44562,0.999924
3.18,-3.09538,1.00537,1.48091,0.486662,2.47992,1.00198
3.19,-3.0896,1.00793,1.51181,0.518988,2.50778,1.00228
3.2,-3.08476,1.00562,1.54268,0.542558,2.53568,1.00216
3.21,-3.0784,1.00201,1.57348,0.576546,2.57334,1.0004
3.22,-3.07457,0.998948,1.60427,0.60503,2.60617,0.999518
3.23,-3.03832,1.00103,1.63485,0.633506,2.63239,1.00047
3.24,-2.99449,1.00665,1.665,0.670451,2.66057,1.00168
3.25,-2.97915,1.00696,1.69485,0.701745,2.69351,1.00282
3.26,-2.97417,1.00492,1.72462,0.725988,2.71866,1.00123
3.27,-2.96427,1.00014,1.75431,0.753428,2.75392,1.00039
3.28,-2.95089,0.999252,1.78388,0.7863,2.78595,0.999075
3.29,-2.91646,1.00073,1.81324,0.812108,2.81275,1.00105
3.3,-2.87665,1.00779,1.8422,0.846874,2.83455,1.00158
3.31,-2.86004,1.00643,1.87086,0.876789,2.8697,1.00286
3.32,-2.85557,1.0037,1.89943,0.901644,2.89562,1.00068
3.33,-2.84308,0.998572,1.92793,0.923438,2.92662,1.00016
3.34,-2.82377,0.999481,1.95628,0.958745,2.9578,0.999007
3.35,-2.78996,1.0015,1.98436,0.9849,2.98435,1.00123
3.36,-2.7541,1.00785,2.01207,1.01509,3.00321,1.00186
3.37,-2.73246,1.00627,2.03948,1.0446,3.03715,1.00252
3.38,-2.72851,1.00228,2.06678,1.0698,3.06597,1.00036
3.39,-2.7142,0.997826,2.094,1.08838,3.09193,0.999596
3.4,-2.6868,0.999231,2.12102,1.12233,3.12264,0.999385
3.41,-2.65229,1.00302,2.14772,1.15133,3.14763,1.00116
3.42,-2.61928,1.0073,2.17407,1.17615,3.16619,1.00228
3.43,-2.59894,1.00621,2.20013,1.20495,3.19626,1.00184
3.44,-2.59242,1.00014,2.22609,1.22847,3.22884,1.00032
3.45,-2.57582,0.9975,2.25194,1.24733,3.25026,0.998965
3.46,-2.54447,0.999338,2.27755,1.27733,3.27859,0.999968
3.47,-2.5076,1.00462,2.3028,1.30909,3.30204,1.00108
3.48,-2.47833,1.00608,2.32772,1.32897,3.32214,1.00265
3.49,-2.45984,1.00566,2.3524,1.35624,3.34713,1.00108
3.5,-2.45383,0.998793,2.37697,1.37837,3.38124,1.00023
3.51,-2.43554,0.997282,2.40143,1.39828,3.40088,0.99858
3.52,-2.40612,0.99933,2.42565,1.42352,3.42581,1.00047
3.53,-2.36531,1.00616,2.44949,1.45701,3.44695,1.0011
3.54,-2.33769,1.0054,2.47299,1.47479,3.46933,1.00266
3.55,-2.32385,1.00416,2.49629,1.49785,3.49069,1.00057
3.56,-2.31294,0.997872,2.51947,1.51939,3.52354,0.999944
3.57,-2.2923,0.997724,2.5425,1.54154,3.54331,0.998606
3.58,-2.2621,1.0002,2.56529,1.56259,3.56357,1.00069
3.59,-2.22844,1.00614,2.58774,1.5939,3.58446,1.00139
3.6,-2.20407,1.00508,2.60989,1.61337,3.60771,1.00224
3.61,-2.19095,1.00255,2.63184,1.63145,3.62696,1.0003
3.62,-2.18035,0.997722,2.6537,1.65269,3.65614,0.99944
3.63,-2.15905,0.997676,2.67541,1.67562,3.67853,0.999127
3.64,-2.12601,1.00171,2.69684,1.69553,3.69352,1.00071
3.65,-2.09668,1.00586,2.71796,1.72222,3.7141,1.00178
3.66,-2.07402,1.00473,2.7388,1.74387,3.73741,1.00149
3.67,-2.05692,1.0003,2.75945,1.75749,3.7575,1.0003
3.68,-2.04421,0.998075,2.77996,1.77839,3.78008,0.998919
3.69,-2.01824,0.998118,2.80028,1.80145,3.80469,0.999738
3.7,-1.98386,1.00309,2.8203,1.82125,3.81633,1.00063
3.71,-1.95752,1.00485,2.84,1.84141,3.83613,1.0022
3.72,-1.93942,1.0042,2.85947,1.86544,3.85839,1.00066
3.73,-1.92654,0.998414,2.87879,1.87604,3.87941,1.0001
3.74,-1.91243,0.998146,2.89798,1.89529,3.89631,0.998656
3.75,-1.88395,0.998782,2.91698,1.9183,3.9216,1.00043
3.76,-1.85262,1.00452,2.93566,1.9392,3.93134,1.00058
