time,velocity,ratio,centerX,Xmax,Xmin,Ymax
0,0,0.99998,1.1,0.1,2.1,0.99998
0.01,0.015542,1.00005,1.09992,0.100021,2.0999,0.999988
0.02,0.0309426,1.00017,1.09969,0.0999376,2.09962,1.00001
0.03,0.0457471,1.00038,1.09931,0.099792,2.09915,1.00006
0.04,0.059893,1.00064,1.09878,0.0995237,2.09853,1.00014
0.05,0.0739637,1.00094,1.09811,0.0991047,2.09773,1.00025
0.06,0.0871151,1.00123,1.0973,0.0985,2.0968,1.00037
0.07,0.100363,1.00154,1.09637,0.0977599,2.09565,1.00049
0.08,0.113387,1.00185,1.0953,0.0968666,2.09432,1.00058
0.09,0.126655,1.00207,1.0941,0.0957945,2.09291,1.00063
0.1,0.139505,1.00223,1.09277,0.094567,2.09142,1.00065
0.11,0.152336,1.00226,1.09131,0.0931519,2.08992,1.00065
0.12,0.163644,1.00219,1.08973,0.0915659,2.08842,1.00061
0.13,0.175116,1.00192,1.08804,0.0896049,2.08694,1.00058
0.14,0.186544,1.00165,1.08623,0.0875534,2.08535,1.00055
0.15,0.199998,1.00145,1.0843,0.0855847,2.0836,1.00045
0.16,0.213655,1.0012,1.08223,0.083594,2.0819,1.00036
0.17,0.227596,1.00107,1.08003,0.0813002,2.07966,1.00025
0.18,0.241664,1.00098,1.07768,0.0788173,2.07728,1.00021
0.19,0.254215,1.00086,1.0752,0.0762023,2.07494,1.00023
0.2,0.266486,1.00094,1.0726,0.0735948,2.0721,1.0002
0.21,0.279234,1.00095,1.06987,0.0709488,2.06951,1.00022
0.22,0.292331,1.00112,1.06702,0.0682005,2.06654,1.00029
0.23,0.305331,1.00154,1.06403,0.0657087,2.06333,1.00035
0.24,0.317132,1.00169,1.06091,0.062477,2.0601,1.0005
0.25,0.327828,1.00208,1.05769,0.0594709,2.05652,1.0006
0.26,0.338739,1.00241,1.05436,0.0565143,2.05297,1.00063
0.27,0.349677,1.00271,1.05092,0.0534817,2.04958,1.00075
0.28,0.35969,1.00307,1.04737,0.0505375,2.04602,1.0008
0.29,0.368323,1.00339,1.04373,0.047167,2.04228,1.00094
0.3,0.377053,1.00365,1.04,0.0435075,2.03805,1.0009
0.31,0.385939,1.00373,1.03619,0.0397726,2.0342,1.00093
0.32,0.394269,1.00361,1.03229,0.0359823,2.03077,1.001
0.33,0.402479,1.004,1.02831,0.032551,2.02666,1.00104
0.34,0.410233,1.00409,1.02424,0.0287203,2.02256,1.001
0.35,0.418134,1.00413,1.0201,0.0246929,2.01835,1.00095
0.36,0.425216,1.00422,1.01589,0.0206715,2.014,1.00087
0.37,0.431523,1.00453,1.0116,0.0169587,2.00983,1.00094
0.38,0.437288,1.00489,1.00726,0.0135013,2.00571,1.00097
0.39,0.443146,1.00558,1.00286,0.010273,2.00119,1.00102
0.4,0.447206,1.00617,0.998407,0.00687568,1.99677,1.00109
0.41,0.449697,1.00699,0.993922,0.00339946,1.99178,1.00114
0.42,0.450914,1.00792,0.989419,0.000140001,1.98695,1.00128
0.43,0.450028,1.0105,0.984913,0.000226706,1.98241,1.0015
0.44,0.446197,1.01312,0.98043,-0,1.9776,1.00177
0.45,0.439242,1.01606,0.976001,1.6545e-06,1.97252,1.0021
0.46,0.428117,1.01889,0.97166,3.76694e-06,1.96756,1.00236
0.47,0.411211,1.02182,0.967457,5.00861e-06,1.96263,1.00272
0.48,0.388239,1.02505,0.963456,-0,1.95764,1.00334
0.49,0.361296,1.0283,0.959703,-0,1.95313,1.0042
0.5,0.329286,1.03128,0.956246,-0,1.94909,1.00503
0.51,0.292411,1.03464,0.953133,-0,1.94439,1.00587
0.52,0.25172,1.03795,0.950409,-0,1.93962,1.00661
0.53,0.208845,1.04091,0.948104,-0,1.93525,1.00721
0.54,0.164678,1.0429,0.946234,-0,1.93226,1.00758
0.55,0.118774,1.04413,0.944815,2.74724e-08,1.93058,1.00789
0.56,0.0724906,1.0449,0.943857,1.28551e-07,1.92949,1.00806
0.57,0.026853,1.04474,0.943359,2.27547e-07,1.92978,1.00806
0.58,-0.0178476,1.04382,0.943314,4.0897e-08,1.93088,1.00775
0.59,-0.0614204,1.04244,0.943709,5.69458e-08,1.93261,1.00731
0.6,-0.103308,1.04083,0.944533,-0,1.93461,1.0068
0.61,-0.142745,1.03916,0.945763,8.53946e-08,1.93659,1.00621
0.62,-0.179965,1.03745,0.947375,-0,1.9388,1.0057
0.63,-0.215964,1.03569,0.949352,1.09767e-07,1.94132,1.0053
0.64,-0.251676,1.03418,0.951689,1.21715e-07,1.94359,1.00501
0.65,-0.283736,1.03249,0.954367,1.34667e-07,1.94617,1.0047
0.66,-0.311011,1.03043,0.957343,-0,1.94956,1.00444
0.67,-0.33444,1.02823,0.96057,1.6188e-07,1.95323,1.00419
0.68,-0.355022,1.02609,0.964016,-0,1.95695,1.00401
0.69,-0.373563,1.02369,0.967658,1.88431e-07,1.96116,1.00381
0.7,-0.389132,1.02122,0.971471,-0,1.96538,1.00354
0.71,-0.400334,1.01848,0.97542,2.32893e-07,1.97016,1.00328
0.72,-0.406902,1.0155,0.979457,-0,1.97507,1.00284
0.73,-0.40993,1.01277,0.983542,4.25819e-08,1.97942,1.00235
0.74,-0.408967,1.00975,0.987638,0.000171052,1.98426,1.00172
0.75,-0.403531,1.00716,0.991703,0.00055173,1.98867,1.00118
0.76,-0.393928,1.00373,0.995692,-0,1.99392,1.00067
0.77,-0.380986,1.00043,0.999568,-0,1.99943,1.00014
0.78,-0.364659,0.997557,1.0033,-0,2.00417,0.999639
0.79,-0.345427,0.99483,1.00685,-0,2.00869,0.99915
0.8,-0.323855,0.994733,1.0102,0.00461352,2.01271,0.998758
0.81,-0.300781,0.993665,1.01332,0.00675568,2.01624,0.998378
0.82,-0.277093,0.993504,1.01621,0.00966015,2.01925,0.998269
0.83,-0.253549,0.993826,1.01886,0.0127299,2.0217,0.998282
0.84,-0.23041,0.99449,1.02128,0.0161629,2.02392,0.998346
0.85,-0.207784,0.995401,1.02347,0.0192642,2.0256,0.998553
0.86,-0.18674,0.996791,1.02544,0.022709,2.02706,0.998961
0.87,-0.167997,0.998639,1.02721,0.0263663,2.02815,0.999529
0.88,-0.152169,1.0006,1.0288,0.0299837,2.02915,1.00018
0.89,-0.139053,1.00248,1.03026,0.0331412,2.02976,1.00078
0.9,-0.128159,1.00444,1.03159,0.0359528,2.02977,1.00134
0.91,-0.118851,1.0062,1.03282,0.0383637,2.0297,1.00184
0.92,-0.110786,1.00766,1.03397,0.0403082,2.0295,1.00222
0.93,-0.103586,1.00821,1.03504,0.0416074,2.03019,1.00245
0.94,-0.0969582,1.00823,1.03604,0.0424005,2.03113,1.00254
0.95,-0.0905874,1.00777,1.03698,0.042761,2.0322,1.00245
0.96,-0.0824906,1.00667,1.03785,0.0426996,2.03365,1.00212
0.97,-0.0728834,1.00496,1.03863,0.0424879,2.03562,1.00151
0.98,-0.0625621,1.0031,1.0393,0.0422186,2.03786,1.00091
0.99,-0.0516111,1.0013,1.03988,0.0416679,2.03961,1.00027
1,-0.0386863,0.99954,1.04033,0.0409069,2.04105,0.999613
1.01,-0.0238146,0.997446,1.04064,0.0394398,2.04259,0.999019
1.02,-0.00701872,0.996075,1.0408,0.0383708,2.04355,0.998657
1.03,0.0118125,0.995347,1.04078,0.0375532,2.04389,0.998501
