time,velocity,ratio,centerX,Xmax,Xmin,Ymax
0,0,1,21,20,22,1
0.01,0.0198751,0.99998,20.9999,19.9999,21.9999,1
0.02,0.0397539,1,20.9996,19.9996,21.9996,1
0.03,0.0595413,1.00005,20.9991,19.9991,21.9991,1.00001
0.04,0.0792559,1.00008,20.9984,19.9985,21.9984,1.00002
0.05,0.0989165,1.00009,20.9975,19.9976,21.9975,1.00003
0.06,0.118504,1.00013,20.9964,19.9965,21.9963,1.00004
0.07,0.138032,1.00016,20.9952,19.9953,21.995,1.00004
0.08,0.157521,1.00017,20.9937,19.9938,21.9935,1.00004
0.09,0.17705,1.00019,20.992,19.9922,21.9918,1.00002
0.1,0.197015,1.00022,20.9901,19.9903,21.9899,1.00004
0.11,0.217526,1.0002,20.9881,19.9882,21.988,1.00005
0.12,0.238443,1.00013,20.9858,19.9859,21.9858,1.0001
0.13,0.259165,1.00016,20.9833,19.9834,21.9834,1.00014
0.14,0.278493,1.00026,20.9806,19.9808,21.9806,1.00015
0.15,0.297688,1.00045,20.9777,19.978,21.9773,1.00007
0.16,0.317055,1.0005,20.9747,19.9751,21.9742,1.00004
0.17,0.336973,1.00045,20.9714,19.9718,21.971,1.00006
0.18,0.357032,1.00045,20.9679,19.9684,21.9677,1.00014
0.19,0.375558,1.00023,20.9643,19.9643,21.9643,1.00026
0.2,0.394401,1.00033,20.9604,19.9603,21.96,1.00021
0.21,0.413878,1.00045,20.9564,19.9565,21.9559,1.00016
0.22,0.433357,1.00061,20.9521,19.9527,21.9517,1.00011
0.23,0.452196,1.00073,20.9477,19.9486,21.9474,1.00011
0.24,0.471261,1.00072,20.9431,19.9436,21.9425,1.00016
0.25,0.490763,1.00065,20.9383,19.9385,21.9377,1.00024
0.26,0.509513,1.00047,20.9333,19.9334,21.9331,1.00032
0.27,0.528384,1.00078,20.9281,19.9287,21.9278,1.0003
0.28,0.547678,1.00097,20.9227,19.9234,21.922,1.00025
0.29,0.566365,1.00099,20.9171,19.9178,21.9163,1.00021
0.3,0.585162,1.00113,20.9114,19.912,21.9102,1.00023
0.31,0.604217,1.00115,20.9054,19.9063,21.9046,1.00034
0.32,0.622734,1.00093,20.8993,19.9001,21.8991,1.00043
0.33,0.641697,1.00108,20.893,19.8938,21.8925,1.00045
0.34,0.66039,1.00125,20.8865,19.8872,21.8856,1.00045
0.35,0.67887,1.00141,20.8798,19.8806,21.8786,1.00042
0.36,0.697546,1.00155,20.8729,19.8741,21.8717,1.00036
0.37,0.71604,1.00145,20.8658,19.867,21.865,1.00042
0.38,0.734837,1.00164,20.8586,19.8598,21.8575,1.00051
0.39,0.753011,1.0014,20.8511,19.8518,21.8502,1.00059
0.4,0.771548,1.00142,20.8435,19.844,21.8424,1.00061
0.41,0.789728,1.00164,20.8357,19.8369,21.8347,1.00051
0.42,0.808165,1.00187,20.8277,19.8292,21.8266,1.00057
0.43,0.82626,1.00202,20.8196,19.8212,21.8181,1.00049
0.44,0.844602,1.00196,20.8112,19.8125,21.8098,1.0006
0.45,0.862635,1.00192,20.8027,19.8038,21.8014,1.0007
0.46,0.880964,1.00209,20.7939,19.7953,21.7926,1.00077
0.47,0.898997,1.00207,20.785,19.7865,21.784,1.0008
0.48,0.916839,1.00236,20.776,19.7775,21.7742,1.0007
0.49,0.934987,1.00255,20.7667,19.7683,21.7647,1.00074
0.5,0.95286,1.00256,20.7573,19.759,21.7554,1.00074
0.51,0.970833,1.0027,20.7477,19.7497,21.746,1.00084
0.52,0.98895,1.00251,20.7379,19.7396,21.7365,1.00096
0.53,1.00664,1.00281,20.7279,19.7297,21.726,1.00098
0.54,1.02446,1.00286,20.7177,19.7195,21.7158,1.001
0.55,1.04228,1.00298,20.7074,19.7093,21.7053,1.00095
0.56,1.06,1.00323,20.6969,19.6993,21.6947,1.00091
0.57,1.07774,1.00326,20.6862,19.6886,21.6841,1.00104
0.58,1.0954,1.0033,20.6753,19.6774,21.673,1.00109
0.59,1.11291,1.00317,20.6643,19.6661,21.6621,1.00114
0.6,1.13075,1.00331,20.6531,19.6551,21.6509,1.00123
0.61,1.14828,1.00357,20.6417,19.6441,21.6393,1.00118
0.62,1.16578,1.00376,20.6301,19.6329,21.6277,1.00115
0.63,1.18313,1.00387,20.6184,19.621,21.6155,1.00114
0.64,1.20062,1.00395,20.6064,19.609,21.6037,1.00129
0.65,1.21806,1.00394,20.5943,19.597,21.5919,1.00138
0.66,1.23528,1.0041,20.5821,19.585,21.5796,1.00141
0.67,1.25244,1.00412,20.5696,19.5722,21.5669,1.00145
0.68,1.26967,1.00451,20.557,19.5599,21.5538,1.00143
0.69,1.28674,1.0047,20.5443,19.5474,21.5409,1.00144
0.7,1.30395,1.00466,20.5313,19.5345,21.5282,1.00148
0.71,1.32121,1.00475,20.5182,19.5216,21.5153,1.00158
0.72,1.33829,1.00481,20.5049,19.5081,21.5018,1.00168
0.73,1.35539,1.00499,20.4914,19.4946,21.488,1.0017
0.74,1.37239,1.00498,20.4778,19.481,21.4744,1.0017
0.75,1.38945,1.00528,20.464,19.4677,21.4606,1.0017
0.76,1.4066,1.00549,20.45,19.4539,21.4464,1.00169
0.77,1.4237,1.00548,20.4358,19.4396,21.4322,1.00178
0.78,1.44061,1.0055,20.4215,19.425,21.4178,1.00186
0.79,1.45769,1.00557,20.407,19.4106,21.4034,1.00194
0.8,1.47457,1.00573,20.3924,19.3961,21.3887,1.002
0.81,1.49134,1.00598,20.3775,19.3817,21.3737,1.00196
0.82,1.50808,1.00624,20.3625,19.3667,21.3583,1.00198
0.83,1.52477,1.00643,20.3474,19.3517,21.3429,1.00201
0.84,1.54138,1.00648,20.332,19.3365,21.3278,1.00212
0.85,1.55793,1.00639,20.3165,19.3209,21.3126,1.00222
0.86,1.57437,1.00666,20.3009,19.3054,21.2967,1.00227
0.87,1.59086,1.00682,20.2851,19.2894,21.2805,1.00232
0.88,1.6076,1.0071,20.2691,19.2736,21.2641,1.00231
0.89,1.62422,1.00722,20.2529,19.2578,21.2481,1.00231
0.9,1.64066,1.00738,20.2366,19.2417,21.2318,1.00238
0.91,1.65701,1.0075,20.2201,19.2252,21.2152,1.00247
0.92,1.67341,1.00746,20.2035,19.2084,21.1986,1.00256
0.93,1.68975,1.00758,20.1866,19.1916,21.1817,1.00258
0.94,1.70618,1.00773,20.1697,19.1749,21.1647,1.00259
0.95,1.7227,1.00794,20.1525,19.1581,21.1474,1.00259
0.96,1.73894,1.00815,20.1352,19.1409,21.1299,1.00258
0.97,1.75513,1.00825,20.1177,19.1233,21.1122,1.00267
0.98,1.7712,1.00827,20.1001,19.1055,21.0947,1.00279
0.99,1.78732,1.0084,20.0823,19.0879,21.077,1.00289
1,1.80326,1.00848,20.0644,19.0699,21.0589,1.00294
1.01,1.81927,1.0088,20.0463,19.0521,21.0404,1.00293
1.02,1.83546,1.00904,20.028,19.034,21.022,1.00296
1.03,1.85132,1.00917,20.0095,19.0158,21.0035,1.00299
1.04,1.86734,1.0093,19.991,18.9974,20.985,1.00308
1.05,1.88325,1.00952,19.9722,18.9787,20.9662,1.00323
1.06,1.8989,1.00975,19.9533,18.9597,20.9469,1.0033
1.07,1.91477,1.00984,19.9342,18.9406,20.9276,1.00331
1.08,1.93049,1.00996,19.915,18.9216,20.9083,1.00329
1.09,1.94631,1.01017,19.8956,18.9026,20.889,1.00332
1.1,1.96209,1.01043,19.8761,18.8833,20.8694,1.00342
1.11,1.97788,1.01049,19.8564,18.8635,20.8496,1.00348
1.12,1.99338,1.01046,19.8365,18.8434,20.8298,1.00355
1.13,2.00888,1.01055,19.8165,18.8235,20.8098,1.00362
1.14,2.02455,1.01086,19.7963,18.8037,20.7894,1.00364
1.15,2.03996,1.01106,19.776,18.7836,20.7689,1.00364
1.16,2.05564,1.01121,19.7555,18.7632,20.7482,1.00366
1.17,2.07091,1.01145,19.7349,18.7426,20.7274,1.00378
1.18,2.08616,1.01153,19.7141,18.7218,20.7066,1.00388
1.19,2.10144,1.01154,19.6932,18.7009,20.6859,1.00394
1.2,2.1166,1.01179,19.6721,18.6799,20.6646,1.00401
1.21,2.13163,1.01219,19.6509,18.659,20.6428,1.00402
1.22,2.14672,1.01231,19.6295,18.6377,20.6215,1.00407
1.23,2.1617,1.01249,19.6079,18.6165,20.6,1.00413
1.24,2.1767,1.01269,19.5862,18.595,20.5782,1.00419
1.25,2.19175,1.01276,19.5644,18.5729,20.5563,1.00433
1.26,2.20663,1.013,19.5424,18.5511,20.534,1.00436
1.27,2.22166,1.01308,19.5203,18.5289,20.5118,1.00439
1.28,2.23681,1.01318,19.498,18.5068,20.4894,1.00441
1.29,2.2517,1.0135,19.4755,18.4848,20.4669,1.00442
1.3,2.26658,1.01364,19.4529,18.4622,20.4442,1.00453
1.31,2.2814,1.0137,19.4302,18.4395,20.4214,1.00457
1.32,2.29637,1.01382,19.4073,18.4165,20.3986,1.00471
1.33,2.31105,1.01394,19.3843,18.3935,20.3754,1.00473
1.34,2.32559,1.01421,19.3611,18.3708,20.3522,1.00477
1.35,2.33985,1.01451,19.3378,18.3476,20.3284,1.0048
1.36,2.35431,1.01478,19.3143,18.3243,20.3048,1.00486
1.37,2.36862,1.01483,19.2907,18.3006,20.2812,1.00496
1.38,2.38314,1.01506,19.2669,18.2771,20.2574,1.00506
1.39,2.39751,1.01515,19.243,18.2531,20.2334,1.00514
1.4,2.41184,1.01547,19.219,18.2293,20.2091,1.00521
1.41,2.42603,1.01562,19.1948,18.2052,20.1847,1.00521
1.42,2.44029,1.01586,19.1705,18.1811,20.1603,1.00526
1.43,2.45469,1.01597,19.146,18.1569,20.136,1.00533
1.44,2.4689,1.01625,19.1214,18.1325,20.1111,1.00542
1.45,2.48323,1.01628,19.0966,18.1076,20.0864,1.00551
1.46,2.49742,1.01649,19.0717,18.0827,20.0611,1.00555
1.47,2.51178,1.01666,19.0467,18.0579,20.0361,1.0056
1.48,2.5259,1.01681,19.0215,18.0328,20.0107,1.00561
1.49,2.54009,1.01714,18.9961,18.0078,19.9852,1.00565
1.5,2.55411,1.01713,18.9707,17.9822,19.9598,1.00574
1.51,2.56798,1.0174,18.9451,17.9568,19.934,1.00582
1.52,2.58176,1.01741,18.9193,17.931,19.9084,1.00593
1.53,2.59553,1.01768,18.8934,17.9053,19.8824,1.00598
1.54,2.60928,1.01805,18.8674,17.8797,19.856,1.00601
1.55,2.623,1.01827,18.8413,17.8535,19.8296,1.00607
1.56,2.63669,1.01848,18.815,17.8275,19.8032,1.00614
1.57,2.65025,1.01865,18.7885,17.8011,19.7767,1.00623
1.58,2.6638,1.01879,18.762,17.7746,19.7501,1.00634
1.59,2.67734,1.01899,18.7352,17.748,19.7233,1.00642
1.6,2.69091,1.01929,18.7084,17.7213,19.6961,1.00647
1.61,2.70449,1.01934,18.6814,17.6943,19.6691,1.00647
1.62,2.71805,1.01955,18.6543,17.6676,19.6421,1.00654
1.63,2.73158,1.01985,18.6271,17.6406,19.6147,1.00663
1.64,2.7451,1.01999,18.5997,17.6132,19.5871,1.00668
1.65,2.75847,1.02,18.5722,17.5857,19.5597,1.00676
1.66,2.77189,1.0202,18.5445,17.558,19.5318,1.00684
1.67,2.78545,1.02051,18.5167,17.5306,19.5038,1.00687
1.68,2.79875,1.02072,18.4888,17.5028,19.4758,1.0069
1.69,2.81186,1.02085,18.4608,17.4748,19.4476,1.00693
1.7,2.82487,1.02097,18.4326,17.4466,19.4193,1.00705
1.71,2.83805,1.02125,18.4043,17.4186,19.391,1.00715
1.72,2.85099,1.0215,18.3758,17.3904,19.3624,1.00724
1.73,2.86382,1.02164,18.3473,17.3618,19.3337,1.0073
1.74,2.87657,1.02184,18.3186,17.3332,19.3048,1.00734
1.75,2.88945,1.0222,18.2897,17.3046,19.2756,1.00738
1.76,2.90222,1.02246,18.2608,17.2759,19.2466,1.00747
1.77,2.91524,1.0226,18.2317,17.2471,19.2177,1.00757
1.78,2.92808,1.02275,18.2025,17.2178,19.1883,1.00767
1.79,2.94097,1.02293,18.1731,17.1885,19.1587,1.00773
1.8,2.95379,1.02311,18.1437,17.1591,19.1291,1.00778
1.81,2.9665,1.02327,18.1141,17.1296,19.0994,1.00781
1.82,2.97908,1.02347,18.0843,17.1002,19.0696,1.00785
1.83,2.99179,1.0237,18.0545,17.0705,19.0397,1.00792
1.84,3.0045,1.02394,18.0245,17.0407,19.0096,1.008
1.85,3.01701,1.02405,17.9944,17.0106,18.9795,1.00809
1.86,3.02951,1.0242,17.9642,16.9805,18.9491,1.00815
1.87,3.04197,1.02445,17.9338,16.9503,18.9185,1.00819
1.88,3.05446,1.02476,17.9033,16.92,18.8877,1.00825
1.89,3.06676,1.02495,17.8727,16.8895,18.857,1.00831
1.9,3.0788,1.02504,17.842,16.8588,18.8264,1.00842
1.91,3.09094,1.02518,17.8111,16.828,18.7955,1.00852
1.92,3.10309,1.02544,17.7802,16.7973,18.7645,1.00861
1.93,3.11512,1.0257,17.7491,16.7663,18.7331,1.00868
1.94,3.127,1.02594,17.7179,16.7353,18.7017,1.00872
1.95,3.13911,1.02613,17.6865,16.7041,18.6702,1.00877
1.96,3.15118,1.02636,17.6551,16.6728,18.6387,1.00885
1.97,3.16319,1.02656,17.6235,16.6414,18.6071,1.00894
1.98,3.17522,1.0267,17.5918,16.6097,18.5753,1.00903
1.99,3.18739,1.02687,17.56,16.5779,18.5433,1.00908
2,3.19935,1.02703,17.5281,16.5461,18.5113,1.00913
2.01,3.21125,1.02725,17.496,16.5144,18.4791,1.00916
2.02,3.2231,1.02746,17.4639,16.4825,18.4469,1.0092
2.03,3.23491,1.02768,17.4316,16.4503,18.4145,1.00928
2.04,3.24663,1.02785,17.3992,16.418,18.382,1.00936
2.05,3.25827,1.02805,17.3666,16.3855,18.3493,1.00946
2.06,3.26994,1.0283,17.334,16.353,18.3165,1.00953
2.07,3.28158,1.02862,17.3013,16.3204,18.2834,1.00959
2.08,3.29322,1.02889,17.2684,16.2877,18.2503,1.00964
2.09,3.30474,1.0291,17.2354,16.2549,18.2172,1.00971
2.1,3.31614,1.02926,17.2023,16.2219,18.1841,1.00982
2.11,3.32737,1.02946,17.1691,16.1888,18.1508,1.00991
2.12,3.33872,1.02965,17.1357,16.1556,18.1174,1.00999
2.13,3.35007,1.02981,17.1023,16.1223,18.0839,1.01003
2.14,3.36139,1.03003,17.0687,16.0889,18.0502,1.01008
2.15,3.37253,1.03029,17.0351,16.0555,18.0164,1.01013
2.16,3.38377,1.03054,17.0013,16.0219,17.9824,1.01019
2.17,3.39485,1.03073,16.9674,15.9881,17.9484,1.01027
2.18,3.40614,1.03087,16.9334,15.9541,17.9143,1.01036
2.19,3.41728,1.03094,16.8993,15.9199,17.8801,1.01041
2.2,3.4284,1.0311,16.8651,15.8858,17.8458,1.01048
2.21,3.43976,1.03137,16.8307,15.8517,17.8113,1.01052
2.22,3.45067,1.03166,16.7963,15.8176,17.7767,1.01058
2.23,3.46155,1.03193,16.7617,15.7832,17.742,1.01067
2.24,3.47234,1.03209,16.727,15.7486,17.7073,1.01075
2.25,3.48325,1.0322,16.6923,15.7139,17.6725,1.01087
2.26,3.49407,1.03244,16.6574,15.6791,17.6374,1.01093
2.27,3.50498,1.03277,16.6224,15.6443,17.6021,1.01098
2.28,3.51605,1.03309,16.5873,15.6094,17.5667,1.01102
2.29,3.52701,1.03327,16.5521,15.5744,17.5315,1.01112
2.3,3.53787,1.03333,16.5167,15.5391,17.4963,1.01121
2.31,3.54865,1.0335,16.4813,15.5037,17.4608,1.0113
2.32,3.55959,1.03382,16.4458,15.4684,17.425,1.01136
2.33,3.57059,1.03413,16.4101,15.433,17.3891,1.01144
2.34,3.58145,1.03419,16.3744,15.3973,17.3534,1.01147
2.35,3.59242,1.0344,16.3385,15.3616,17.3174,1.01152
2.36,3.60307,1.0347,16.3025,15.3259,17.2812,1.0116
2.37,3.61363,1.03491,16.2664,15.2899,17.245,1.01169
2.38,3.62427,1.03498,16.2303,15.2536,17.2087,1.01176
2.39,3.63487,1.0352,16.194,15.2175,17.1723,1.01183
2.4,3.64558,1.03546,16.1576,15.1813,17.1358,1.0119
2.41,3.65612,1.03558,16.121,15.1448,17.0992,1.01193
2.42,3.66688,1.03591,16.0844,15.1085,17.0624,1.012
2.43,3.67725,1.03617,16.0477,15.072,17.0256,1.0121
2.44,3.68762,1.03621,16.0109,15.0351,16.9888,1.01218
2.45,3.69802,1.03654,15.974,14.9985,16.9517,1.01228
2.46,3.70827,1.03682,15.9369,14.9616,16.9144,1.01235
2.47,3.71868,1.03694,15.8998,14.9244,16.8771,1.01238
2.48,3.72902,1.03734,15.8626,14.8876,16.8396,1.01247
2.49,3.73917,1.03742,15.8252,14.8503,16.8023,1.01253
2.5,3.74941,1.0376,15.7878,14.8129,16.7648,1.01262
2.51,3.75961,1.03797,15.7502,14.7757,16.727,1.01272
2.52,3.76989,1.03791,15.7126,14.7379,16.6894,1.01277
2.53,3.78022,1.03836,15.6748,14.7005,16.6514,1.01286
2.54,3.79038,1.03847,15.637,14.6628,16.6135,1.01288
2.55,3.80071,1.03865,15.599,14.6249,16.5754,1.01295
2.56,3.81077,1.03908,15.561,14.5873,16.5371,1.01302
2.57,3.82092,1.03894,15.5228,14.5488,16.4991,1.01309
2.58,3.83106,1.03944,15.4846,14.5109,16.4605,1.01319
2.59,3.84112,1.03933,15.4462,14.4724,16.4222,1.01324
2.6,3.85113,1.03977,15.4078,14.4343,16.3834,1.01333
2.61,3.8614,1.03996,15.3692,14.3959,16.3447,1.01335
2.62,3.87128,1.04011,15.3305,14.3573,16.306,1.01345
2.63,3.88086,1.04052,15.2918,14.3189,16.267,1.01351
2.64,3.89046,1.04047,15.2529,14.28,16.2284,1.01364
2.65,3.90012,1.04101,15.214,14.2414,16.1889,1.0137
2.66,3.90967,1.04101,15.1749,14.2023,16.15,1.0138
2.67,3.91929,1.04145,15.1358,14.1634,16.1103,1.01382
2.68,3.92886,1.04149,15.0965,14.1243,16.0713,1.01392
2.69,3.93833,1.0418,15.0572,14.0851,16.0316,1.01395
2.7,3.94772,1.04193,15.0178,14.0458,15.9923,1.01407
2.71,3.95724,1.04213,14.9783,14.0063,15.9525,1.0141
2.72,3.96658,1.04228,14.9386,13.9668,15.913,1.01421
2.73,3.97625,1.04249,14.8989,13.9272,15.873,1.01422
2.74,3.9857,1.04268,14.8591,13.8877,15.8332,1.0143
2.75,3.99507,1.04294,14.8192,13.8479,15.793,1.01434
2.76,4.00438,1.04314,14.7792,13.8081,15.753,1.01442
2.77,4.01366,1.04327,14.7391,13.7679,15.7128,1.01451
2.78,4.02303,1.04352,14.6989,13.728,15.6725,1.01456
2.79,4.0323,1.04362,14.6587,13.6876,15.6321,1.01467
2.8,4.04183,1.04393,14.6183,13.6477,15.5916,1.01466
2.81,4.05102,1.04408,14.5778,13.6071,15.551,1.01479
2.82,4.06023,1.0444,14.5373,13.5669,15.5103,1.01483
2.83,4.06933,1.04456,14.4966,13.5264,15.4697,1.01494
2.84,4.07859,1.04487,14.4559,13.4858,15.4287,1.01504
2.85,4.08791,1.04509,14.4151,13.4452,15.3878,1.01508
2.86,4.09676,1.04528,14.3741,13.4042,15.3466,1.0152
2.87,4.10593,1.0456,14.3331,13.3635,15.3054,1.01524
2.88,4.1151,1.04576,14.292,13.3225,15.2642,1.0153
2.89,4.12431,1.04601,14.2508,13.2815,15.2229,1.0154
2.9,4.13361,1.04622,14.2096,13.2404,15.1816,1.01546
2.91,4.14281,1.04633,14.1682,13.1989,15.1401,1.01555
2.92,4.15196,1.0466,14.1267,13.1577,15.0985,1.01564
2.93,4.16127,1.04681,14.0851,13.1163,15.0568,1.01566
2.94,4.17039,1.04691,14.0435,13.0747,15.0151,1.01572
2.95,4.17957,1.04729,14.0017,13.0333,14.9731,1.01579
2.96,4.18876,1.04743,13.9599,12.9915,14.9312,1.01584
2.97,4.19779,1.04749,13.918,12.9495,14.8892,1.01593
2.98,4.20638,1.04784,13.8759,12.9077,14.847,1.01603
2.99,4.21539,1.04803,13.8338,12.8657,14.8048,1.01607
3,4.22425,1.04814,13.7916,12.8236,14.7625,1.01612
3.01,4.23316,1.04854,13.7494,12.7816,14.7199,1.01623
3.02,4.24185,1.04875,13.707,12.7394,14.6775,1.0163
3.03,4.25063,1.04883,13.6645,12.6971,14.6351,1.01635
3.04,4.25905,1.0492,13.622,12.6546,14.5923,1.01648
3.05,4.26743,1.04952,13.5793,12.6122,14.5494,1.01658
3.06,4.27598,1.04964,13.5366,12.5696,14.5067,1.01661
3.07,4.28478,1.04977,13.4938,12.5269,14.4637,1.01664
3.08,4.29334,1.05015,13.4509,12.4842,14.4205,1.01675
3.09,4.30192,1.05036,13.408,12.4414,14.3776,1.01683
3.1,4.31029,1.05039,13.3649,12.3984,14.3346,1.01687
3.11,4.31873,1.05047,13.3218,12.3552,14.2913,1.0169
3.12,4.32718,1.05084,13.2785,12.3122,14.2478,1.01702
3.13,4.3356,1.05108,13.2352,12.2691,14.2044,1.01709
3.14,4.34432,1.05112,13.1918,12.2259,14.1611,1.01709
3.15,4.35274,1.05123,13.1483,12.1824,14.1175,1.01712
3.16,4.36093,1.05161,13.1048,12.1389,14.0735,1.01722
3.17,4.36891,1.05194,13.0611,12.0956,14.0298,1.01735
3.18,4.37686,1.052,13.0174,12.0519,13.9862,1.01741
3.19,4.385,1.05207,12.9736,12.0081,13.9423,1.01743
3.2,4.39318,1.05235,12.9297,11.9643,13.898,1.01749
3.21,4.40097,1.05278,12.8857,11.9206,13.8538,1.0176
3.22,4.40862,1.05303,12.8417,11.8768,13.8098,1.01772
3.23,4.41638,1.05312,12.7976,11.8328,13.7657,1.0178
3.24,4.42436,1.05328,12.7534,11.7887,13.7214,1.01786
3.25,4.43277,1.05363,12.7091,11.7445,13.6768,1.01793
3.26,4.44085,1.05397,12.6647,11.7004,13.6321,1.018
3.27,4.44888,1.05422,12.6203,11.6562,13.5876,1.01808
3.28,4.45712,1.05437,12.5757,11.6118,13.5431,1.01816
3.29,4.46518,1.05451,12.5311,11.5672,13.4984,1.01823
3.3,4.4732,1.05468,12.4864,11.5227,13.4537,1.0183
3.31,4.48127,1.0549,12.4417,11.478,13.4087,1.01836
3.32,4.48933,1.05513,12.3968,11.4333,13.3637,1.0184
3.33,4.49719,1.05534,12.3519,11.3884,13.3185,1.01845
3.34,4.50501,1.05551,12.3069,11.3436,13.2734,1.01851
3.35,4.51301,1.05567,12.2618,11.2986,13.2284,1.0186
3.36,4.52071,1.05582,12.2166,11.2536,13.1832,1.01868
3.37,4.52863,1.05602,12.1714,11.2085,13.1379,1.01875
3.38,4.53642,1.05625,12.1261,11.1633,13.0924,1.01881
3.39,4.54402,1.05651,12.0807,11.118,13.0468,1.01886
3.4,4.5519,1.05678,12.0352,11.0727,13.001,1.01892
3.41,4.55974,1.05703,11.9896,11.0272,12.9552,1.01898
3.42,4.56718,1.05724,11.944,10.9817,12.9095,1.01906
3.43,4.5746,1.05742,11.8983,10.9361,12.8637,1.01915
3.44,4.58187,1.05758,11.8525,10.8904,12.8179,1.01922
3.45,4.58929,1.05776,11.8066,10.8447,12.772,1.01929
3.46,4.59674,1.05796,11.7607,10.799,12.726,1.01936
3.47,4.60384,1.05817,11.7147,10.7532,12.6799,1.01942
3.48,4.61128,1.05838,11.6686,10.7073,12.6338,1.01949
3.49,4.61863,1.05855,11.6225,10.6612,12.5875,1.01955
3.5,4.62602,1.0587,11.5763,10.6151,12.5412,1.01962
3.51,4.63342,1.05886,11.53,10.5688,12.4948,1.01967
3.52,4.64103,1.05907,11.4836,10.5226,12.4483,1.01972
3.53,4.64832,1.05926,11.4372,10.4763,12.4017,1.01976
3.54,4.65542,1.05947,11.3906,10.4299,12.3551,1.01981
3.55,4.66235,1.05966,11.3441,10.3834,12.3084,1.01988
3.56,4.66942,1.05986,11.2974,10.3369,12.2616,1.01995
3.57,4.67606,1.0601,11.2507,10.2903,12.2147,1.02002
3.58,4.68288,1.06032,11.2039,10.2436,12.1678,1.02009
3.59,4.6896,1.06055,11.157,10.1969,12.1207,1.02016
3.6,4.69654,1.06077,11.1101,10.1501,12.0737,1.02023
3.61,4.70353,1.06098,11.0631,10.1033,12.0266,1.0203
3.62,4.71043,1.06121,11.016,10.0564,11.9795,1.02037
3.63,4.7173,1.06144,10.9689,10.0094,11.9322,1.02045
3.64,4.72429,1.06162,10.9217,9.96236,11.8849,1.02052
3.65,4.73107,1.06183,10.8744,9.91521,11.8375,1.02059
3.66,4.73806,1.06202,10.8271,9.86799,11.7901,1.02064
3.67,4.74515,1.06221,10.7797,9.82071,11.7425,1.02069
3.68,4.75218,1.06236,10.7322,9.77332,11.695,1.02075
3.69,4.75923,1.06248,10.6846,9.72583,11.6474,1.02081
3.7,4.76634,1.06258,10.637,9.67824,11.5997,1.02087
3.71,4.77374,1.0627,10.5893,9.63061,11.552,1.02093
3.72,4.78074,1.06283,10.5415,9.58292,11.5042,1.02098
3.73,4.78769,1.06301,10.4937,9.53518,11.4562,1.02104
3.74,4.7945,1.06321,10.4458,9.48736,11.4081,1.0211
3.75,4.80103,1.06342,10.3978,9.43948,11.36,1.02117
3.76,4.80778,1.06364,10.3498,9.39152,11.3118,1.02125
3.77,4.81452,1.06388,10.3017,9.34353,11.2635,1.02133
3.78,4.82129,1.06411,10.2535,9.29548,11.2152,1.0214
3.79,4.82801,1.06436,10.2052,9.24745,11.1669,1.02146
3.8,4.83487,1.06463,10.1569,9.19941,11.1184,1.02153
3.81,4.84128,1.06489,10.1085,9.15129,11.07,1.0216
