time,velocity,ratio,centerX,Xmax,Xmin,Ymax
0,0,1,41,40,42,1
0.01,0.0198703,0.999997,40.9999,39.9999,41.9999,0.999996
0.02,0.0397702,1.00006,40.9996,39.9996,41.9996,1.00001
0.03,0.0596309,1.00009,40.9991,39.9992,41.9991,1.00003
0.04,0.0794259,1.00012,40.9984,39.9985,41.9983,1.00004
0.05,0.0990407,1.00017,40.9975,39.9976,41.9974,1.00006
0.06,0.118494,1.00015,40.9964,39.9965,41.9963,1.00005
0.07,0.137802,1.00016,40.9952,39.9953,41.995,1.00004
0.08,0.157066,1.00011,40.9937,39.9938,41.9936,1.00001
0.09,0.176667,1.00006,40.992,39.9921,41.9919,0.999977
0.1,0.197339,1,40.9901,39.9902,41.9901,0.999971
0.11,0.221089,0.999921,40.9881,39.988,41.9882,1.00002
0.12,0.246705,0.999995,40.9857,39.9858,41.986,1.00011
0.13,0.272157,1.00022,40.9831,39.9834,41.9832,1.00014
0.14,0.291137,1.00067,40.9803,39.9808,41.9797,1.00013
0.15,0.310398,1.00061,40.9773,39.9778,41.9767,1.00005
0.16,0.330557,1.00048,40.9741,39.9744,41.9738,1.00013
0.17,0.353614,1.0001,40.9707,39.9705,41.9707,1.00021
0.18,0.376332,1.00012,40.967,39.9672,41.9671,1.00009
0.19,0.395558,1.00047,40.9632,39.9639,41.9628,0.999931
0.2,0.414864,1.00001,40.9591,39.9592,41.959,0.999896
0.21,0.437408,0.999989,40.9549,39.9548,41.955,1.00009
0.22,0.458762,0.999779,40.9504,39.9499,41.9507,1.0002
0.23,0.476943,1.0004,40.9457,39.9458,41.945,1.00001
0.24,0.496509,1.0008,40.9408,39.9419,41.9401,0.999916
0.25,0.51717,1.00033,40.9358,39.9362,41.9361,1.00028
0.26,0.534184,1.00055,40.9305,39.9304,41.9301,1.0004
0.27,0.553769,1.00063,40.9251,39.9254,41.9244,1.00009
0.28,0.57295,1.00097,40.9194,39.9207,41.9188,1.00002
0.29,0.591003,1.00038,40.9136,39.9135,41.913,1.00012
0.3,0.611343,0.999755,40.9076,39.9071,41.9081,1.00026
0.31,0.629382,1.00029,40.9014,39.902,41.9016,1.00009
0.32,0.647721,1.00046,40.895,39.8954,41.8942,0.999826
0.33,0.6685,1.00032,40.8884,39.8886,41.8883,1.00013
0.34,0.685813,1.00028,40.8817,39.8817,41.8818,1.0003
0.35,0.706508,1.00061,40.8747,39.8747,41.874,1.00025
0.36,0.723518,1.00118,40.8676,39.8687,41.8667,1.00016
0.37,0.743319,1.00107,40.8602,39.8614,41.8596,1.00017
0.38,0.76083,1.00086,40.8527,39.8529,41.8521,1.00048
0.39,0.780088,1.00066,40.845,39.8453,41.8448,1.0004
0.4,0.798327,1.00103,40.8371,39.8383,41.8365,1.0001
0.41,0.817406,1.00097,40.829,39.8295,41.8278,1.00014
0.42,0.834913,1.00021,40.8208,39.8206,41.8207,1.00023
0.43,0.85491,1.00052,40.8123,39.813,41.8125,1.00031
0.44,0.872663,1.0006,40.8037,39.8041,41.8032,1.00014
0.45,0.891872,1.00108,40.7949,39.7957,41.7937,1.00009
0.46,0.909674,1.00095,40.7859,39.7867,41.7855,1.00035
0.47,0.928157,1.0008,40.7767,39.7767,41.7762,1.00055
0.48,0.946593,1.00154,40.7673,39.7683,41.766,1.00039
0.49,0.964358,1.00138,40.7577,39.7591,41.7569,1.00029
0.5,0.983045,1.00149,40.748,39.749,41.747,1.00049
0.51,1.00102,1.00091,40.7381,39.7385,41.7377,1.00051
0.52,1.01931,1.00095,40.728,39.7288,41.7277,1.0004
0.53,1.03797,1.00147,40.7177,39.7189,41.7162,1.00012
0.54,1.05612,1.00087,40.7072,39.7074,41.7062,1.00026
0.55,1.07409,1.00071,40.6966,39.6973,41.6969,1.00051
0.56,1.09237,1.00116,40.6857,39.6866,41.6849,1.00033
0.57,1.10995,1.00146,40.6747,39.6756,41.6734,1.00039
0.58,1.12713,1.00152,40.6635,39.6649,41.6627,1.0004
0.59,1.14411,1.00168,40.6522,39.6533,41.6512,1.00061
0.6,1.16154,1.00149,40.6407,39.6409,41.6394,1.00076
0.61,1.17917,1.002,40.629,39.6307,41.6276,1.00044
0.62,1.19642,1.00208,40.6171,39.6188,41.6156,1.00046
0.63,1.2146,1.00123,40.605,39.6057,41.6045,1.00064
0.64,1.23258,1.0015,40.5928,39.5938,41.592,1.00058
0.65,1.25028,1.00158,40.5804,39.5814,41.5791,1.00044
0.66,1.26728,1.00155,40.5678,39.5687,41.5663,1.00036
0.67,1.28423,1.00151,40.555,39.5563,41.5543,1.00051
0.68,1.30154,1.00127,40.5421,39.5427,41.5415,1.0007
0.69,1.31872,1.00222,40.529,39.5303,41.5271,1.00061
0.7,1.33597,1.00235,40.5157,39.5178,41.5142,1.00055
0.71,1.35295,1.00228,40.5023,39.504,41.5011,1.00083
0.72,1.3697,1.00226,40.4887,39.4896,41.4868,1.00087
0.73,1.3866,1.00209,40.4749,39.4761,41.4734,1.00075
0.74,1.40362,1.00246,40.4609,39.4632,41.4595,1.00061
0.75,1.42084,1.00209,40.4468,39.4482,41.4452,1.00058
0.76,1.43812,1.00176,40.4325,39.4335,41.4317,1.00086
0.77,1.45545,1.00216,40.4181,39.4196,41.4167,1.0007
0.78,1.47251,1.00249,40.4034,39.405,41.4012,1.00056
0.79,1.48909,1.00223,40.3886,39.3901,41.3872,1.00076
0.8,1.50576,1.00227,40.3736,39.3752,41.3724,1.00085
0.81,1.52265,1.00257,40.3585,39.3598,41.3566,1.00096
0.82,1.53955,1.00265,40.3432,39.3453,41.3417,1.00084
0.83,1.55624,1.00321,40.3277,39.3304,41.3257,1.00085
0.84,1.57318,1.00284,40.3121,39.3135,41.31,1.00109
0.85,1.59022,1.00274,40.2962,39.2978,41.2945,1.00107
0.86,1.60751,1.00313,40.2803,39.2828,41.2783,1.00086
0.87,1.62429,1.00267,40.2641,39.2658,41.2621,1.00081
0.88,1.64112,1.0026,40.2478,39.2495,41.2462,1.00092
0.89,1.65798,1.00247,40.2313,39.2331,41.2301,1.00097
0.9,1.6744,1.00283,40.2146,39.2164,41.2126,1.00092
0.91,1.69065,1.00321,40.1978,39.2,41.1953,1.00083
0.92,1.70675,1.00316,40.1808,39.183,41.1789,1.00106
0.93,1.72281,1.00336,40.1637,39.1658,41.1615,1.00124
0.94,1.73933,1.00343,40.1463,39.1487,41.1441,1.00111
0.95,1.75589,1.00366,40.1289,39.1317,41.1267,1.00111
0.96,1.77241,1.00364,40.1112,39.1137,41.1087,1.00114
0.97,1.78882,1.00325,40.0934,39.0953,41.0914,1.00127
0.98,1.80524,1.00326,40.0755,39.0778,41.0737,1.00123
0.99,1.82159,1.00354,40.0573,39.0597,41.0546,1.00097
1,1.83768,1.00351,40.039,39.0413,41.0364,1.00107
1.01,1.85397,1.00326,40.0206,39.0231,41.019,1.0012
1.02,1.86976,1.00366,40.0019,39.0044,40.9995,1.00121
1.03,1.88551,1.00379,39.9832,38.9855,40.9803,1.00118
1.04,1.90095,1.00401,39.9642,38.9672,40.9617,1.00124
1.05,1.91658,1.0041,39.9452,38.9479,40.9427,1.00145
1.06,1.93287,1.00389,39.9259,38.9282,40.9235,1.00153
1.07,1.949,1.00451,39.9065,38.9098,40.9036,1.00139
1.08,1.96503,1.00453,39.8869,38.8902,40.8838,1.00132
1.09,1.98105,1.00408,39.8672,38.8698,40.8645,1.00143
1.1,1.99725,1.00394,39.8473,38.85,40.845,1.00142
1.11,2.01316,1.00409,39.8273,38.8299,40.8244,1.00131
1.12,2.02893,1.00431,39.807,38.8099,40.8039,1.00128
1.13,2.04461,1.00408,39.7867,38.7898,40.7844,1.00139
1.14,2.06025,1.00424,39.7662,38.769,40.7638,1.00162
1.15,2.07577,1.00464,39.7455,38.7483,40.7421,1.00153
1.16,2.09118,1.00493,39.7246,38.728,40.7212,1.00149
1.17,2.10669,1.00501,39.7037,38.7072,40.7005,1.00165
1.18,2.12233,1.00478,39.6825,38.6855,40.6794,1.00173
1.19,2.13826,1.00497,39.6612,38.6646,40.6581,1.00172
1.2,2.15412,1.00516,39.6397,38.6436,40.6364,1.00157
1.21,2.16975,1.00512,39.6181,38.6217,40.6146,1.00159
1.22,2.1857,1.00457,39.5963,38.5994,40.5937,1.00173
1.23,2.20114,1.0048,39.5744,38.5775,40.5713,1.00168
1.24,2.21643,1.00518,39.5523,38.5556,40.5485,1.00158
1.25,2.23156,1.0049,39.5301,38.5336,40.5271,1.00162
1.26,2.24631,1.0053,39.5077,38.5116,40.5046,1.00181
1.27,2.26164,1.00539,39.4852,38.4885,40.4816,1.00191
1.28,2.27634,1.00575,39.4625,38.4664,40.4586,1.00185
1.29,2.29154,1.00612,39.4396,38.4441,40.4356,1.00187
1.3,2.30688,1.00561,39.4166,38.4202,40.413,1.00198
1.31,2.32247,1.00575,39.3935,38.3972,40.3899,1.00206
1.32,2.33783,1.00575,39.3702,38.3744,40.3667,1.00187
1.33,2.35321,1.00585,39.3467,38.3508,40.3428,1.00184
1.34,2.36843,1.00562,39.3231,38.327,40.3196,1.0019
1.35,2.38363,1.00564,39.2994,38.3031,40.2958,1.00198
1.36,2.39841,1.00592,39.2755,38.2792,40.2714,1.00196
1.37,2.41316,1.00609,39.2514,38.2556,40.2473,1.00191
1.38,2.42724,1.00618,39.2272,38.2317,40.2236,1.00207
1.39,2.44165,1.00638,39.2029,38.207,40.1988,1.00224
1.4,2.45585,1.00655,39.1784,38.1827,40.1741,1.00222
1.41,2.47068,1.00677,39.1537,38.1585,40.1494,1.00218
1.42,2.48552,1.00683,39.129,38.1336,40.1244,1.0022
1.43,2.50031,1.00645,39.104,38.1082,40.0999,1.00229
1.44,2.51538,1.00651,39.079,38.0836,40.0751,1.00225
1.45,2.53001,1.00664,39.0537,38.0584,40.0494,1.00211
1.46,2.54491,1.00654,39.0284,38.0329,40.0241,1.00212
1.47,2.55962,1.00657,39.0028,38.0074,39.9989,1.00227
1.48,2.57396,1.00671,38.9772,37.9815,39.9728,1.00231
1.49,2.58825,1.00691,38.9514,37.9559,39.9467,1.0023
1.5,2.60227,1.00737,38.9254,37.9307,39.9208,1.00236
1.51,2.61623,1.00734,38.8993,37.9044,39.8948,1.00249
1.52,2.63046,1.0075,38.8731,37.878,39.8683,1.00261
1.53,2.64497,1.00757,38.8467,37.852,39.8419,1.00251
1.54,2.65952,1.00762,38.8202,37.8254,39.8151,1.00244
1.55,2.67418,1.0075,38.7935,37.7986,39.7887,1.00251
1.56,2.68882,1.00723,38.7667,37.7716,39.7623,1.00254
1.57,2.70343,1.00744,38.7397,37.7449,39.7351,1.00252
1.58,2.71737,1.00752,38.7126,37.7178,39.7077,1.0024
1.59,2.73135,1.00768,38.6854,37.6908,39.6806,1.00253
1.6,2.74511,1.00769,38.658,37.6631,39.6532,1.00271
1.61,2.75867,1.00787,38.6305,37.6356,39.6253,1.00269
1.62,2.77239,1.00828,38.6028,37.6086,39.5975,1.00267
1.63,2.78608,1.0084,38.5751,37.581,39.5698,1.00277
1.64,2.79995,1.00842,38.5471,37.5528,39.5419,1.00292
1.65,2.81438,1.00838,38.5191,37.5247,39.5139,1.00289
1.66,2.82865,1.00856,38.4908,37.4967,39.4853,1.00277
1.67,2.84284,1.00847,38.4625,37.4682,39.4569,1.00275
1.68,2.85702,1.00814,38.434,37.4396,39.4291,1.00283
1.69,2.87109,1.00827,38.4053,37.411,39.4003,1.00287
1.7,2.8848,1.00847,38.3766,37.3823,39.371,1.00281
1.71,2.89801,1.00879,38.3477,37.3539,39.3421,1.00284
1.72,2.91111,1.00887,38.3186,37.3248,39.3131,1.00298
1.73,2.92423,1.00886,38.2894,37.2952,39.2837,1.00309
1.74,2.93767,1.00912,38.2601,37.2663,39.2543,1.00307
1.75,2.95126,1.0094,38.2307,37.2372,39.2247,1.00306
1.76,2.96486,1.00942,38.2011,37.2075,39.1952,1.00319
1.77,2.97883,1.00929,38.1714,37.1777,39.1657,1.00322
1.78,2.99296,1.00951,38.1415,37.1481,39.1355,1.00316
1.79,3.00697,1.0095,38.1115,37.118,39.1053,1.00309
1.8,3.02066,1.00929,38.0814,37.0878,39.0756,1.00312
1.81,3.03439,1.00924,38.0511,37.0574,39.0455,1.00322
1.82,3.04761,1.00939,38.0207,37.027,39.0147,1.0032
1.83,3.06035,1.00973,37.9902,36.9969,38.9839,1.00318
1.84,3.07296,1.00987,37.9595,36.9665,38.9534,1.00328
1.85,3.08585,1.00997,37.9287,36.9353,38.9224,1.00343
1.86,3.09886,1.01008,37.8978,36.9044,38.8913,1.00346
1.87,3.11209,1.0103,37.8667,36.8739,38.8602,1.0034
1.88,3.12555,1.01042,37.8355,36.8428,38.8289,1.00343
1.89,3.13908,1.01012,37.8042,36.8111,38.798,1.0035
1.9,3.15278,1.01018,37.7728,36.7798,38.7666,1.00349
1.91,3.16639,1.0103,37.7412,36.7482,38.7346,1.00339
1.92,3.17969,1.0102,37.7094,36.7164,38.7029,1.00339
1.93,3.19297,1.01025,37.6776,36.6846,38.6713,1.00352
1.94,3.20577,1.01039,37.6456,36.6526,38.6391,1.00359
1.95,3.21815,1.01071,37.6135,36.6208,38.6067,1.0036
1.96,3.23042,1.01097,37.5812,36.5891,38.5745,1.00362
1.97,3.24267,1.01114,37.5489,36.5565,38.5419,1.00377
1.98,3.25498,1.01116,37.5164,36.5238,38.5094,1.00386
1.99,3.26751,1.01133,37.4838,36.4915,38.4767,1.00381
2,3.28036,1.01154,37.451,36.459,38.4437,1.00377
2.01,3.29317,1.01132,37.4182,36.426,38.4111,1.00379
2.02,3.30597,1.01123,37.3852,36.3929,38.3783,1.00385
2.03,3.31888,1.01125,37.352,36.3597,38.345,1.00379
2.04,3.33166,1.01133,37.3188,36.3264,38.3114,1.00375
2.05,3.34399,1.01139,37.2854,36.2933,38.2783,1.00383
2.06,3.35589,1.01154,37.2519,36.2598,38.2448,1.00397
2.07,3.36761,1.01181,37.2183,36.2263,38.211,1.00403
2.08,3.37929,1.01215,37.1846,36.1931,38.177,1.00401
2.09,3.39117,1.01247,37.1507,36.1594,38.1428,1.00407
2.1,3.40352,1.01232,37.1167,36.125,38.1089,1.00416
2.11,3.41595,1.01218,37.0826,36.0908,38.075,1.00418
2.12,3.42855,1.01228,37.0484,36.0568,38.0406,1.00411
2.13,3.44114,1.01216,37.0141,36.0224,38.0065,1.00407
2.14,3.45363,1.01216,36.9796,35.9882,37.9723,1.00414
2.15,3.46592,1.01228,36.945,35.9536,37.9375,1.00415
2.16,3.47804,1.01249,36.9103,35.9187,37.9022,1.00416
2.17,3.49001,1.01265,36.8755,35.884,37.8673,1.00419
2.18,3.5021,1.01274,36.8405,35.8492,37.8325,1.00432
2.19,3.51366,1.01291,36.8054,35.8141,37.7973,1.00442
2.2,3.52537,1.01308,36.7702,35.7792,37.7621,1.00443
2.21,3.53732,1.01345,36.7349,35.7443,37.7265,1.00445
2.22,3.54935,1.01338,36.6995,35.7086,37.6911,1.00449
2.23,3.56175,1.01328,36.6639,35.673,37.6557,1.00451
2.24,3.57457,1.01327,36.6282,35.6373,37.62,1.00449
2.25,3.58722,1.01325,36.5924,35.6014,37.584,1.00442
2.26,3.59935,1.01319,36.5565,35.5656,37.5483,1.00442
2.27,3.61097,1.01325,36.5205,35.5297,37.5124,1.00451
2.28,3.62238,1.01344,36.4843,35.4933,37.4758,1.00459
2.29,3.63336,1.01368,36.448,35.4572,37.4392,1.00456
2.3,3.64451,1.01403,36.4116,35.4213,37.4028,1.00464
2.31,3.65604,1.01409,36.3751,35.3847,37.3664,1.00482
2.32,3.66716,1.01409,36.3385,35.3479,37.3297,1.00485
2.33,3.6788,1.01447,36.3018,35.3118,37.2927,1.00479
2.34,3.69053,1.01445,36.2649,35.275,37.2559,1.0048
2.35,3.70246,1.0142,36.228,35.2376,37.2192,1.00485
2.36,3.71483,1.01424,36.1909,35.2006,37.182,1.00485
2.37,3.72685,1.01427,36.1537,35.1634,37.1447,1.00478
2.38,3.73853,1.0143,36.1164,35.1262,37.1075,1.00478
2.39,3.74967,1.0144,36.0789,35.0889,37.0701,1.00488
2.4,3.76054,1.0146,36.0414,35.0513,37.0323,1.00497
2.41,3.77149,1.01485,36.0037,35.0137,36.9943,1.005
2.42,3.78211,1.01509,35.9659,34.9762,36.9564,1.00504
2.43,3.79315,1.01523,35.9281,34.9385,36.9186,1.00512
2.44,3.8044,1.01524,35.8901,34.9004,36.8806,1.00523
2.45,3.81582,1.01529,35.852,34.8625,36.8426,1.00518
2.46,3.8275,1.01552,35.8138,34.8245,36.8041,1.00513
2.47,3.83905,1.01534,35.7754,34.7859,36.7659,1.00514
2.48,3.85073,1.01525,35.737,34.7474,36.7276,1.00519
2.49,3.86226,1.01528,35.6984,34.7087,36.6888,1.00518
2.5,3.87359,1.01539,35.6597,34.6703,36.6501,1.00515
2.51,3.88423,1.01556,35.621,34.6317,36.6114,1.00522
2.52,3.89489,1.01567,35.5821,34.5928,36.5725,1.00535
2.53,3.90524,1.01602,35.5431,34.5539,36.533,1.00542
2.54,3.91597,1.01612,35.504,34.5149,36.4939,1.00543
2.55,3.92672,1.0165,35.4648,34.4761,36.4544,1.00548
2.56,3.9378,1.01625,35.4254,34.4364,36.4153,1.00556
2.57,3.94926,1.01643,35.386,34.3972,36.3759,1.00558
2.58,3.96088,1.01636,35.3464,34.3577,36.3364,1.00551
2.59,3.97213,1.01653,35.3068,34.3182,36.2965,1.00549
2.6,3.98346,1.01629,35.267,34.2781,36.257,1.00553
2.61,3.99448,1.01643,35.2271,34.2383,36.2169,1.00556
2.62,4.00545,1.01651,35.1871,34.1982,36.1767,1.00558
2.63,4.01611,1.0167,35.147,34.1585,36.1367,1.00559
2.64,4.02618,1.01695,35.1068,34.1185,36.0964,1.00571
2.65,4.03616,1.01706,35.0665,34.0781,36.056,1.00581
2.66,4.04645,1.01736,35.0261,34.0379,36.0152,1.00585
2.67,4.05711,1.01742,34.9856,33.9975,35.9747,1.00584
2.68,4.06784,1.01757,34.9449,33.9569,35.934,1.00588
2.69,4.07909,1.01735,34.9042,33.916,35.8935,1.00594
2.7,4.09025,1.01745,34.8634,33.8754,35.8527,1.00591
2.71,4.10151,1.01754,34.8224,33.8344,35.8114,1.00586
2.72,4.11241,1.01741,34.7813,33.7933,35.7706,1.00586
2.73,4.12281,1.01763,34.7402,33.7523,35.7293,1.00596
2.74,4.13324,1.01763,34.6989,33.7107,35.6878,1.00599
2.75,4.14348,1.0178,34.6575,33.6696,35.6465,1.006
2.76,4.15323,1.01821,34.616,33.6285,35.6047,1.00609
2.77,4.16305,1.01819,34.5745,33.5868,35.5632,1.00616
2.78,4.17291,1.01838,34.5328,33.5453,35.5215,1.00625
2.79,4.18304,1.01862,34.491,33.5036,35.4793,1.00623
2.8,4.19371,1.01851,34.4491,33.4617,35.4375,1.00619
2.81,4.20441,1.01847,34.4071,33.4197,35.3958,1.00627
2.82,4.21456,1.01842,34.365,33.3775,35.3537,1.00626
2.83,4.22486,1.01844,34.3228,33.3355,35.3114,1.0062
2.84,4.23502,1.01855,34.2805,33.2933,35.2691,1.00623
2.85,4.24517,1.0187,34.2381,33.2509,35.2266,1.00628
2.86,4.25472,1.0188,34.1956,33.2084,35.184,1.00635
2.87,4.26444,1.01889,34.153,33.1657,35.1413,1.00642
2.88,4.27406,1.01922,34.1104,33.1235,35.0984,1.00646
2.89,4.28344,1.0195,34.0676,33.0809,35.0555,1.00653
2.9,4.29307,1.01942,34.0247,33.0379,35.0127,1.00659
2.91,4.3033,1.01947,33.9817,32.995,34.9698,1.00662
2.92,4.31379,1.0197,33.9386,32.952,34.9263,1.00659
2.93,4.32409,1.01965,33.8954,32.9088,34.8832,1.00658
2.94,4.33413,1.0194,33.8522,32.8654,34.8403,1.00659
2.95,4.34442,1.01938,33.8088,32.8219,34.7969,1.00662
2.96,4.35446,1.01963,33.7653,32.7787,34.7531,1.0066
2.97,4.36373,1.01996,33.7217,32.7354,34.7093,1.00665
2.98,4.37301,1.01996,33.678,32.6916,34.6657,1.00674
2.99,4.38213,1.0199,33.6342,32.6476,34.6219,1.0068
3,4.39151,1.02023,33.5904,32.604,34.5778,1.00686
3.01,4.40102,1.02065,33.5464,32.5605,34.5336,1.0069
3.02,4.41066,1.02076,33.5023,32.5166,34.4896,1.00697
3.03,4.42071,1.02051,33.4582,32.4722,34.4457,1.00699
3.04,4.43087,1.02043,33.4139,32.4278,34.4013,1.00693
3.05,4.44097,1.02057,33.3696,32.3835,34.3567,1.00691
3.06,4.45125,1.02067,33.3251,32.3392,34.3124,1.00695
3.07,4.46134,1.0207,33.2806,32.2948,34.2679,1.007
3.08,4.47136,1.02068,33.2359,32.25,34.2232,1.007
3.09,4.48072,1.02078,33.1911,32.2053,34.1784,1.00702
3.1,4.48964,1.02104,33.1463,32.1606,34.1333,1.00709
3.11,4.49839,1.02127,33.1013,32.1157,34.0881,1.00719
3.12,4.50726,1.02143,33.0563,32.0708,34.043,1.00724
3.13,4.5163,1.02159,33.0112,32.0259,33.9979,1.00726
3.14,4.52555,1.02167,32.966,31.9808,33.9527,1.0073
3.15,4.53487,1.02165,32.9207,31.9356,33.9075,1.00734
3.16,4.54434,1.02171,32.8753,31.8902,33.862,1.00733
3.17,4.55404,1.02168,32.8298,31.8446,33.8164,1.00728
3.18,4.5634,1.02158,32.7842,31.7989,33.7709,1.00728
3.19,4.57263,1.02159,32.7385,31.7532,33.7253,1.00733
3.2,4.58179,1.0217,32.6928,31.7074,33.6794,1.00736
3.21,4.59014,1.02192,32.6469,31.6618,33.6334,1.00739
3.22,4.59853,1.02216,32.601,31.6161,33.5873,1.00744
3.23,4.60668,1.02238,32.555,31.5701,33.5411,1.00754
3.24,4.6151,1.0225,32.5088,31.524,33.4949,1.00762
3.25,4.62395,1.02265,32.4627,31.478,33.4486,1.00763
3.26,4.63291,1.02272,32.4164,31.4319,33.4024,1.00763
3.27,4.64199,1.02263,32.37,31.3855,33.3562,1.00766
3.28,4.65107,1.02264,32.3235,31.3391,33.3098,1.00767
3.29,4.66032,1.02268,32.277,31.2925,33.2631,1.00764
3.3,4.66956,1.02271,32.2303,31.2459,33.2164,1.00762
3.31,4.67832,1.02274,32.1836,31.1992,33.1697,1.00766
3.32,4.68688,1.02283,32.1368,31.1523,33.1228,1.00773
3.33,4.69492,1.02303,32.0899,31.1056,33.0758,1.00778
3.34,4.70302,1.0233,32.0429,31.0589,33.0286,1.00781
3.35,4.71119,1.02353,31.9958,31.012,32.9814,1.00789
3.36,4.71949,1.0236,31.9487,30.9647,32.9342,1.00796
3.37,4.72836,1.02366,31.9014,30.9175,32.8869,1.00799
3.38,4.73703,1.02374,31.8541,30.8703,32.8395,1.00797
3.39,4.74601,1.0237,31.8067,30.8229,32.7922,1.00796
3.4,4.75485,1.02366,31.7592,30.7754,32.7448,1.00799
3.41,4.76376,1.02367,31.7116,30.7278,32.6971,1.00799
3.42,4.77274,1.02373,31.6639,30.68,32.6492,1.00798
3.43,4.78114,1.02381,31.6161,30.6323,32.6015,1.00801
3.44,4.78924,1.02391,31.5683,30.5845,32.5536,1.00809
3.45,4.79709,1.02404,31.5204,30.5366,32.5056,1.00817
3.46,4.80474,1.02424,31.4724,30.4888,32.4575,1.00821
3.47,4.81231,1.02447,31.4243,30.4409,32.4092,1.00826
3.48,4.82016,1.02455,31.3761,30.3928,32.3611,1.00832
3.49,4.82837,1.02458,31.3279,30.3445,32.3128,1.00835
3.5,4.83661,1.02464,31.2795,30.2963,32.2645,1.00833
3.51,4.84509,1.02468,31.2311,30.248,32.216,1.0083
3.52,4.85329,1.02468,31.1826,30.1996,32.1676,1.00831
3.53,4.86145,1.02473,31.1341,30.151,32.119,1.00832
3.54,4.86938,1.02482,31.0854,30.1023,32.0701,1.00834
3.55,4.87734,1.02489,31.0367,30.0536,32.0213,1.00836
3.56,4.88493,1.02498,30.9879,30.0048,31.9725,1.00843
3.57,4.89215,1.02503,30.939,29.9559,31.9236,1.00852
3.58,4.89914,1.02514,30.89,29.9071,31.8747,1.00857
3.59,4.90658,1.02537,30.841,29.8583,31.8256,1.00858
3.6,4.91416,1.02557,30.7919,29.8094,31.7763,1.00861
3.61,4.92169,1.02567,30.7427,29.7602,31.727,1.00863
3.62,4.92963,1.02573,30.6935,29.711,31.6776,1.00865
3.63,4.93823,1.02573,30.6442,29.6616,31.6283,1.00863
3.64,4.94656,1.02558,30.5947,29.6121,31.5791,1.00864
3.65,4.95443,1.02547,30.5452,29.5626,31.5298,1.00866
3.66,4.96187,1.02555,30.4956,29.513,31.4801,1.00869
3.67,4.96906,1.02576,30.446,29.4635,31.4302,1.0087
3.68,4.97627,1.02609,30.3963,29.414,31.3802,1.00876
3.69,4.98371,1.02634,30.3465,29.3643,31.3303,1.00886
3.7,4.99121,1.02636,30.2966,29.3144,31.2805,1.00893
3.71,4.99886,1.02639,30.2467,29.2646,31.2306,1.00893
3.72,5.00634,1.02646,30.1966,29.2147,31.1805,1.00892
3.73,5.01444,1.02652,30.1465,29.1646,31.1304,1.00896
3.74,5.02243,1.02661,30.0963,29.1144,31.08,1.00899
3.75,5.03051,1.0266,30.0461,29.0641,31.0298,1.00899
3.76,5.0383,1.02652,29.9957,29.0138,30.9796,1.00895
3.77,5.04608,1.02658,29.9453,28.9634,30.9291,1.00897
3.78,5.05355,1.02677,29.8948,28.913,30.8785,1.00904
3.79,5.06077,1.02696,29.8443,28.8625,30.8277,1.00911
3.8,5.06774,1.02705,29.7936,28.812,30.7771,1.00912
