time,velocity,ratio,centerX,Xmax,Xmin,Ymax
0,0,0.99998,1.1,0.1,2.1,0.99998
0.01,0.0155609,1.00001,1.09992,0.0999818,2.09993,0.999987
0.02,0.0309085,1.00017,1.09969,0.0999333,2.09961,1.00001
0.03,0.0455651,1.00037,1.09931,0.0997607,2.09915,1.00007
0.04,0.0595284,1.00061,1.09878,0.099445,2.09852,1.00015
0.05,0.0734529,1.00085,1.09812,0.098946,2.09776,1.00026
0.06,0.0868197,1.00111,1.09732,0.098302,2.09679,1.00036
0.07,0.0998071,1.00135,1.09638,0.0975036,2.09565,1.00042
0.08,0.112826,1.00152,1.09532,0.0965503,2.09441,1.00045
0.09,0.12552,1.00161,1.09413,0.0954262,2.09314,1.00046
0.1,0.138642,1.00155,1.09281,0.0940904,2.09188,1.00044
0.11,0.150623,1.00138,1.09136,0.0925777,2.0906,1.00039
0.12,0.161374,1.00112,1.0898,0.0908263,2.08923,1.00032
0.13,0.172757,1.00085,1.08813,0.0888249,2.0877,1.00029
0.14,0.184927,1.00065,1.08635,0.0869042,2.08597,1.00019
0.15,0.198815,1.0005,1.08443,0.0849642,2.0842,1.00012
0.16,0.213735,1.00047,1.08237,0.0829476,2.08211,1.00005
0.17,0.229974,1.00033,1.08015,0.0806229,2.08018,1.00011
0.18,0.246148,1.00045,1.07777,0.0783243,2.07784,1.00021
0.19,0.259823,1.00066,1.07523,0.0760218,2.0754,1.00035
0.2,0.27155,1.00127,1.07258,0.0737418,2.07182,1.00031
0.21,0.282745,1.00162,1.06981,0.0713361,2.06868,1.00029
0.22,0.294206,1.00192,1.06692,0.0687509,2.06569,1.00039
0.23,0.306558,1.00215,1.06392,0.0659757,2.06294,1.00063
0.24,0.31665,1.00202,1.0608,0.0624012,2.06002,1.00082
0.25,0.326768,1.00223,1.05759,0.0591974,2.05624,1.00074
0.26,0.33685,1.00225,1.05427,0.0561867,2.05292,1.00061
0.27,0.346953,1.00239,1.05085,0.053462,2.04953,1.00042
0.28,0.356882,1.00228,1.04733,0.0500871,2.0465,1.00048
0.29,0.364363,1.00181,1.04373,0.0456001,2.04298,1.0005
0.3,0.373548,1.00154,1.04004,0.0415156,2.03942,1.00049
0.31,0.384034,1.00141,1.03625,0.0376709,2.03573,1.00044
0.32,0.395614,1.00164,1.03236,0.0345271,2.03193,1.00034
0.33,0.404553,1.00194,1.02836,0.0308332,2.02762,1.00033
0.34,0.413028,1.00219,1.02427,0.0265924,2.02278,1.00028
0.35,0.422044,1.00199,1.02009,0.0224472,2.01936,1.00045
0.36,0.430912,1.00259,1.01583,0.0191151,2.01534,1.0007
0.37,0.437788,1.00326,1.01149,0.0155946,2.01086,1.00088
0.38,0.44286,1.00405,1.00708,0.0119721,2.00544,1.00077
0.39,0.446842,1.00488,1.00263,0.00858075,2.00046,1.0008
0.4,0.448388,1.00571,0.998158,0.00536966,1.99606,1.00103
0.41,0.448223,1.0055,0.993675,-0,1.99165,1.0013
0.42,0.447029,1.00806,0.989199,6.8001e-08,1.98696,1.00149
0.43,0.442216,1.01059,0.984749,2.27587e-06,1.98214,1.00156
0.44,0.43206,1.01311,0.980374,2.88417e-06,1.9773,1.0016
0.45,0.416147,1.01552,0.976128,2.63687e-06,1.97283,1.00172
0.46,0.394178,1.01818,0.97207,2.52634e-06,1.96844,1.00211
0.47,0.365596,1.02111,0.968266,2.47562e-06,1.96413,1.00279
0.48,0.331493,1.0241,0.964776,2.45221e-06,1.95973,1.00348
0.49,0.291192,1.02715,0.961656,2.44068e-06,1.9554,1.00424
0.5,0.244715,1.03024,0.958971,2.43377e-06,1.95088,1.00494
0.51,0.19336,1.03318,0.956776,2.42892e-06,1.94653,1.00556
0.52,0.138623,1.03514,0.955113,2.42465e-06,1.94371,1.006
0.53,0.0814981,1.03618,0.954009,2.42053e-06,1.94248,1.00637
0.54,0.0232786,1.03637,0.953482,-0,1.94243,1.00654
0.55,-0.0357013,1.03577,0.953543,-0,1.9432,1.00635
0.56,-0.0947291,1.03454,0.954194,-0,1.94459,1.00588
0.57,-0.151641,1.03284,0.955427,-0,1.94678,1.00536
0.58,-0.204079,1.03082,0.957209,-0,1.94959,1.00484
0.59,-0.24771,1.02868,0.959474,-0,1.95271,1.00436
0.6,-0.285007,1.02641,0.96214,-0,1.95603,1.00384
0.61,-0.318867,1.02405,0.965157,-0,1.95944,1.00328
0.62,-0.350337,1.02168,0.968503,1.02523e-05,1.96317,1.00286
0.63,-0.376209,1.01916,0.972139,2.61599e-05,1.96768,1.00268
0.64,-0.394349,1.0165,0.975995,-0,1.97256,1.00255
0.65,-0.406227,1.01417,0.979998,-0,1.97656,1.00228
0.66,-0.413398,1.01169,0.984098,-0,1.9807,1.00192
0.67,-0.416236,1.00915,0.988247,-0,1.98486,1.00151
0.68,-0.413997,1.00643,0.992401,-0,1.9895,1.00115
0.69,-0.407232,1.00346,0.996509,-0,1.99486,1.00088
0.7,-0.396079,1.00082,1.00053,0.00045142,1.99987,1.00053
0.71,-0.379423,0.997732,1.00441,0.000104675,2.00473,1.00004
0.72,-0.359294,0.997079,1.0081,0.00420449,2.00895,0.999443
0.73,-0.33638,0.996051,1.01158,0.00710191,2.01304,0.999011
0.74,-0.311275,0.995546,1.01482,0.0102841,2.01665,0.998713
0.75,-0.285286,0.995124,1.0178,0.0131944,2.02012,0.998568
0.76,-0.260086,0.995136,1.02053,0.0163935,2.02317,0.998509
0.77,-0.237289,0.995885,1.02301,0.0198888,2.02557,0.998714
0.78,-0.216552,0.997463,1.02527,0.0236872,2.02707,0.99915
0.79,-0.198874,0.999084,1.02735,0.0274517,2.02867,0.999692
0.8,-0.184565,1.0011,1.02926,0.0307436,2.02911,1.00028
0.81,-0.171635,1.00322,1.03104,0.0335716,2.0291,1.00098
0.82,-0.159366,1.0048,1.03269,0.0362287,2.02969,1.00151
0.83,-0.148873,1.00595,1.03423,0.0387543,2.03067,1.00188
0.84,-0.140872,1.00674,1.03568,0.0409535,2.03178,1.00212
0.85,-0.135242,1.00663,1.03706,0.0423913,2.03314,1.00198
0.86,-0.129919,1.0056,1.03838,0.0430857,2.03521,1.00164
0.87,-0.12393,1.0042,1.03965,0.0435521,2.03759,1.0012
0.88,-0.116639,1.00256,1.04086,0.0436657,2.04006,1.00075
0.89,-0.106608,1.00051,1.04198,0.0427585,2.04195,1.00011
0.9,-0.0927754,0.998541,1.04298,0.0416872,2.04371,0.99955
0.91,-0.0757147,0.997272,1.04382,0.0413571,2.04512,0.999149
0.92,-0.0559768,0.996189,1.04448,0.0410711,2.04651,0.998897
0.93,-0.0341808,0.995532,1.04493,0.0410764,2.04746,0.998709
0.94,-0.0114566,0.995932,1.04516,0.0417188,2.04736,0.998743
0.95,0.010542,0.996832,1.04516,0.042748,2.04699,0.998947
