time,velocity,ratio,centerX,Xmax,Xmin,Ymax
0,0,1,41,40,42,1
0.01,0.0199011,1.00005,40.9999,39.9999,41.9999,1.00001
0.02,0.0399924,1.00012,40.9996,39.9997,41.9995,1.00004
0.03,0.0606865,1.00015,40.9991,39.9992,41.999,1.00005
0.04,0.0803496,1.0001,40.9984,39.9985,41.9983,1.00004
0.05,0.0986372,1.00005,40.9975,39.9975,41.9974,1.00001
0.06,0.11633,1.00002,40.9964,39.9964,41.9964,1
0.07,0.134579,1.00007,40.9952,39.9952,41.9951,1.00001
0.08,0.153214,1.0001,40.9937,39.9938,41.9936,1.00001
0.09,0.172861,1.00005,40.9921,39.9922,41.992,0.999971
0.1,0.199068,0.999924,40.9903,39.9902,41.9904,0.999993
0.11,0.245048,1.00007,40.9881,39.9882,41.9883,1.00009
0.12,0.304574,1.00053,40.9853,39.9859,41.9853,1.00023
0.13,0.343663,1.00081,40.982,39.9826,41.9815,1.00027
0.14,0.359774,1.0002,40.9785,39.9787,41.9783,1.00001
0.15,0.379942,0.999401,40.9748,39.9745,41.9753,0.999781
0.16,0.421277,0.999372,40.9708,39.9706,41.9716,0.999883
0.17,0.465598,1.0004,40.9663,39.9668,41.9664,1.00019
0.18,0.485424,1.00113,40.9616,39.9624,41.9606,1.00023
0.19,0.513753,1.00036,40.9566,39.9568,41.9566,1.00028
0.2,0.550322,0.999954,40.9513,39.9517,41.9515,0.999854
0.21,0.566548,0.999422,40.9457,39.9451,41.946,0.999897
0.22,0.59481,0.999911,40.9399,39.9396,41.9397,0.999953
0.23,0.625483,1.00077,40.9338,39.9346,41.9338,1.00039
0.24,0.6472,1.00109,40.9274,39.9281,41.9262,1.00013
0.25,0.683025,0.999803,40.9208,39.9202,41.9212,1.00034
0.26,0.70339,1.00033,40.9138,39.9149,41.9132,0.999504
0.27,0.733894,0.998995,40.9067,39.9054,41.9079,1.00023
0.28,0.757694,1.00094,40.8992,39.9,41.8975,0.99971
0.29,0.784349,1.00029,40.8915,39.8918,41.8925,1.00065
0.3,0.805564,1.00148,40.8835,39.8847,41.8814,0.99981
0.31,0.838988,0.999466,40.8753,39.8745,41.8762,1.00034
0.32,0.866049,1.00013,40.8668,39.8674,41.8662,0.999558
0.33,0.904821,0.999496,40.858,39.8574,41.8589,1.00027
0.34,0.918299,1.00123,40.8488,39.8492,41.8468,1.00001
0.35,0.934302,1.00109,40.8396,39.8405,41.8393,1.00049
0.36,0.957394,1.00046,40.8301,39.8304,41.8298,1.00016
0.37,0.968969,0.999824,40.8205,39.8198,41.8198,0.999818
0.38,0.995846,0.999253,40.8107,39.8099,41.8115,1.00002
0.39,1.01498,1.00059,40.8006,39.802,41.8005,0.999856
0.4,1.02802,1.00059,40.7904,39.7892,41.7893,1.00062
0.41,1.05279,1.00169,40.78,39.7824,41.779,0.99999
0.42,1.06746,0.999685,40.7694,39.7687,41.7702,1.00047
0.43,1.08327,1.00043,40.7586,39.7589,41.7569,0.99945
0.44,1.10464,0.998918,40.7477,39.747,41.7499,1.00035
0.45,1.12811,1.00108,40.7366,39.7384,41.7353,0.999553
0.46,1.14446,1.0003,40.7252,39.7239,41.7249,1.00082
0.47,1.15964,1.00201,40.7136,39.7167,41.7125,0.999906
0.48,1.18646,0.99959,40.7019,39.7011,41.7031,1.00059
0.49,1.2059,1.00075,40.69,39.6908,41.6881,0.999398
0.5,1.22518,0.999302,40.6778,39.677,41.6793,1.00045
0.51,1.24863,1.00142,40.6654,39.6671,41.6642,0.999972
0.52,1.26421,1.00074,40.6529,39.6523,41.6523,1.00072
0.53,1.27867,1.00122,40.6401,39.6419,41.6393,0.999937
0.54,1.291,0.999779,40.6273,39.6267,41.6275,1.00017
0.55,1.31388,1.00004,40.6143,39.6145,41.614,0.999802
0.56,1.32657,1.00013,40.6011,39.6011,41.6011,1.00015
0.57,1.34325,1.00105,40.5877,39.5882,41.5869,1.00036
0.58,1.35872,1.0014,40.5742,39.5753,41.5733,1.00036
0.59,1.37232,1.00015,40.5605,39.5607,41.5611,1.00036
0.6,1.39197,1.00001,40.5467,39.5464,41.5459,0.999738
0.61,1.41129,0.99966,40.5327,39.5329,41.5339,1.00014
0.62,1.43079,1.00129,40.5185,39.5198,41.5172,0.999969
0.63,1.44807,1.00101,40.5041,39.5038,41.5035,1.00082
0.64,1.46744,1.00196,40.4895,39.4919,41.4882,1.00011
0.65,1.49006,0.999815,40.4747,39.4742,41.4756,1.00049
0.66,1.51357,1.00041,40.4597,39.4599,41.4581,0.999511
0.67,1.53264,0.999338,40.4445,39.4443,41.4464,1.00037
0.68,1.55158,1.00162,40.429,39.4306,41.4273,0.999932
0.69,1.56498,1.00114,40.4134,39.413,41.4127,1.00095
0.7,1.5843,1.00208,40.3977,39.4003,41.3963,1.00005
0.71,1.60212,0.999697,40.3817,39.381,41.3825,1.00047
0.72,1.62211,1.00037,40.3656,39.3656,41.364,0.999577
0.73,1.64149,0.999731,40.3493,39.3494,41.3507,1.00038
0.74,1.65997,1.00176,40.3328,39.334,41.3307,1.00014
0.75,1.67589,1.00151,40.3161,39.3163,41.3149,1.0008
0.76,1.6946,1.00149,40.2993,39.3008,41.2984,1.00026
0.77,1.71357,1.00011,40.2822,39.282,41.2821,1.00016
0.78,1.73428,0.999996,40.265,39.2643,41.2641,0.9999
0.79,1.75062,1.00055,40.2476,39.2485,41.2477,1.00017
0.8,1.76712,1.00142,40.23,39.2304,41.2288,1.00061
0.81,1.78196,1.00211,40.2122,39.2136,41.2103,1.00046
0.82,1.79922,1.00069,40.1943,39.1946,41.1942,1.0005
0.83,1.81625,1.00061,40.1762,39.177,41.1753,0.999784
0.84,1.83414,0.99973,40.158,39.1572,41.1583,1.00027
0.85,1.84877,1.00124,40.1396,39.1411,41.1386,0.999981
0.86,1.86533,1.00105,40.121,39.1211,41.1208,1.00093
0.87,1.88286,1.00243,40.1023,39.1046,41.1003,1.00023
0.88,1.90021,1.00047,40.0833,39.0833,41.0836,1.00063
0.89,1.92076,1.00094,40.0642,39.0656,41.0631,0.99967
0.9,1.93755,0.99979,40.045,39.0446,41.046,1.0005
0.91,1.95131,1.00162,40.0255,39.0269,41.0239,1.00007
0.92,1.96394,1.00133,40.0059,39.0064,41.0056,1.00094
0.93,1.98327,1.00229,39.9862,38.9887,40.9846,1.00021
0.94,1.99913,1.00044,39.9663,38.9661,40.9663,1.00051
0.95,2.018,1.00053,39.9462,38.9467,40.9455,0.999912
0.96,2.03438,1.00034,39.9259,38.9264,40.9266,1.00042
0.97,2.04916,1.00186,39.9055,38.9064,40.9033,1.0003
0.98,2.06032,1.00186,39.885,38.8862,40.8839,1.00068
0.99,2.07781,1.00121,39.8643,38.8653,40.864,1.00054
1,2.09525,1.00075,39.8434,38.8436,40.8424,1.00018
1.01,2.10931,1.00064,39.8224,38.8226,40.8216,1.00014
1.02,2.1225,1.00129,39.8012,38.8029,40.8009,1.00027
1.03,2.13525,1.00124,39.78,38.7796,40.7788,1.00084
1.04,2.14859,1.00231,39.7585,38.7605,40.7566,1.00034
1.05,2.1666,1.00095,39.737,38.7378,40.7371,1.00061
1.06,2.18465,1.0011,39.7152,38.716,40.7137,0.999969
1.07,2.20032,1.00014,39.6933,38.6926,40.6936,1.00062
1.08,2.21515,1.00213,39.6712,38.6737,40.6698,1.00016
1.09,2.22717,1.00157,39.649,38.6492,40.6479,1.00091
1.1,2.24375,1.00208,39.6266,38.6285,40.625,1.0003
1.11,2.2594,1.00027,39.6041,38.6042,40.6051,1.00067
1.12,2.27806,1.00141,39.5814,38.5825,40.5795,0.99991
1.13,2.29393,1.00085,39.5586,38.559,40.5585,1.00062
1.14,2.30813,1.00213,39.5356,38.5376,40.5341,1.00039
1.15,2.32028,1.00163,39.5124,38.5128,40.5114,1.00093
1.16,2.33597,1.00206,39.4891,38.4909,40.4874,1.00031
1.17,2.35185,1.00068,39.4657,38.4662,40.4657,1.00042
1.18,2.36955,1.00099,39.4421,38.4427,40.4411,1.00021
1.19,2.38187,1.00135,39.4183,38.4192,40.4176,1.00055
1.2,2.39492,1.00234,39.3945,38.396,40.3927,1.00067
1.21,2.40991,1.00226,39.3704,38.372,40.3688,1.00066
1.22,2.4278,1.00127,39.3463,38.3471,40.3457,1.00059
1.23,2.44297,1.00089,39.3219,38.3224,40.3209,1.00016
1.24,2.45962,1.00103,39.2974,38.298,40.2969,1.00048
1.25,2.47353,1.00204,39.2727,38.2746,40.2713,1.00038
1.26,2.48678,1.00192,39.2479,38.2485,40.2467,1.00102
1.27,2.5024,1.00266,39.223,38.2253,40.221,1.0005
1.28,2.51955,1.00114,39.1979,38.1986,40.1977,1.0007
1.29,2.53601,1.00126,39.1726,38.1733,40.171,1.00008
1.3,2.55039,1.00077,39.1472,38.1477,40.1475,1.0007
1.31,2.5632,1.00254,39.1216,38.1239,40.1195,1.00038
1.32,2.57564,1.00221,39.0959,38.0968,40.0945,1.00107
1.33,2.59065,1.00242,39.0701,38.0723,40.0684,1.00046
1.34,2.60632,1.00093,39.0441,38.0447,40.0443,1.00073
1.35,2.62204,1.00156,39.0179,38.0187,40.0159,1.00016
1.36,2.63393,1.00118,38.9917,37.9928,39.9918,1.00066
1.37,2.64611,1.00241,38.9653,37.9671,39.9634,1.00059
1.38,2.65832,1.0025,38.9387,37.94,39.937,1.001
1.39,2.67262,1.00228,38.9121,37.914,39.9106,1.00059
1.4,2.68778,1.00124,38.8853,37.8864,39.8849,1.00045
1.41,2.70164,1.00135,38.8583,37.8586,39.8568,1.00043
1.42,2.7125,1.00188,38.8313,37.8331,39.8306,1.00064
1.43,2.72376,1.00229,38.8041,37.8055,39.8025,1.00081
1.44,2.73716,1.00268,38.7768,37.7786,39.7747,1.00072
1.45,2.75189,1.00186,38.7493,37.7505,39.7485,1.00085
1.46,2.76698,1.00174,38.7218,37.7233,39.7206,1.00036
1.47,2.77887,1.00114,38.694,37.6941,39.6931,1.00064
1.48,2.79065,1.00237,38.6662,37.6684,39.6647,1.00049
1.49,2.80355,1.0024,38.6382,37.6394,39.6369,1.00114
1.5,2.81823,1.00291,38.6101,37.6124,39.6078,1.00062
1.51,2.83336,1.00144,38.5818,37.5826,39.5814,1.00085
1.52,2.84948,1.00205,38.5534,37.5553,39.5518,1.00029
1.53,2.86465,1.00156,38.5249,37.5256,39.5242,1.00088
1.54,2.87859,1.00259,38.4961,37.4982,39.4941,1.00056
1.55,2.89185,1.00233,38.4673,37.4686,39.4661,1.00108
1.56,2.90742,1.00295,38.4383,37.4409,39.4363,1.00065
1.57,2.92189,1.00162,38.4092,37.41,39.4085,1.00084
1.58,2.93562,1.00184,38.3799,37.3811,39.3782,1.00041
1.59,2.94741,1.00201,38.3504,37.3521,39.3497,1.0008
1.6,2.96004,1.00283,38.3209,37.3227,39.3187,1.00081
1.61,2.97418,1.00266,38.2912,37.2928,39.2895,1.00098
1.62,2.99057,1.00237,38.2614,37.2634,39.2601,1.00075
1.63,3.00621,1.00208,38.2314,37.2329,39.23,1.00064
1.64,3.01898,1.00197,38.2013,37.2022,39.1997,1.00073
1.65,3.03103,1.0025,38.1711,37.1734,39.1699,1.00075
1.66,3.04322,1.00264,38.1407,37.1419,39.1388,1.00105
1.67,3.05781,1.00315,38.1102,37.1125,39.1079,1.00083
1.68,3.07304,1.00206,38.0795,37.0811,39.0789,1.00095
1.69,3.08761,1.00214,38.0487,37.0504,39.0471,1.00049
1.7,3.10092,1.00195,38.0178,37.0186,39.0165,1.00092
1.71,3.11288,1.00317,37.9867,36.9898,38.985,1.00074
1.72,3.12457,1.00269,37.9555,36.9567,38.9538,1.00124
1.73,3.13813,1.0031,37.9242,36.9266,38.9219,1.00075
1.74,3.15329,1.00199,37.8928,36.8943,38.8923,1.00099
1.75,3.16732,1.00246,37.8612,36.863,38.8592,1.00052
1.76,3.17898,1.00209,37.8295,36.8304,38.8282,1.00101
1.77,3.18943,1.00321,37.7976,36.8004,38.7957,1.00085
1.78,3.20061,1.00304,37.7657,36.7673,38.7637,1.00123
1.79,3.21379,1.003,37.7336,36.7357,38.7314,1.00081
1.8,3.22671,1.00191,37.7014,36.7029,38.7008,1.00086
1.81,3.23975,1.00234,37.6691,36.6706,38.6673,1.00067
1.82,3.25049,1.00278,37.6366,36.6384,38.6348,1.00096
1.83,3.26178,1.00319,37.6041,36.6063,38.6021,1.00104
1.84,3.27514,1.00328,37.5714,36.5736,38.5692,1.00107
1.85,3.29007,1.00273,37.5385,36.5403,38.5368,1.00096
1.86,3.30459,1.00235,37.5056,36.5073,38.5041,1.00071
1.87,3.31713,1.00219,37.4725,36.4737,38.4711,1.00088
1.88,3.32798,1.00321,37.4392,36.4417,38.4371,1.00092
1.89,3.33842,1.00321,37.4059,36.4077,38.4039,1.0013
1.9,3.35171,1.0036,37.3725,36.3752,38.3699,1.00097
1.91,3.36631,1.00251,37.3389,36.3405,38.3376,1.00106
1.92,3.38113,1.00266,37.3051,36.3071,38.303,1.00063
1.93,3.39321,1.00241,37.2713,36.2727,38.27,1.00106
1.94,3.40397,1.00353,37.2373,36.2401,38.2349,1.00092
1.95,3.41486,1.00322,37.2032,36.2048,38.2012,1.00139
1.96,3.42856,1.00372,37.169,36.1719,38.1663,1.00096
1.97,3.44293,1.00257,37.1346,36.1365,38.1334,1.00107
1.98,3.45681,1.00272,37.1001,36.1019,38.0979,1.00067
1.99,3.46808,1.00264,37.0655,36.0672,38.0642,1.00114
2,3.47914,1.00373,37.0308,36.0337,38.0284,1.00109
2.01,3.49112,1.0035,36.9959,35.9978,37.9935,1.00132
2.02,3.50473,1.00354,36.9609,35.9637,37.9586,1.00098
2.03,3.5189,1.00274,36.9258,35.928,37.9245,1.00101
2.04,3.53135,1.00275,36.8906,35.8921,37.8884,1.00092
2.05,3.54155,1.00306,36.8552,35.8574,37.8534,1.00109
2.06,3.55095,1.00376,36.8197,35.8226,37.8175,1.00119
2.07,3.56177,1.00388,36.7842,35.7867,37.7814,1.00122
2.08,3.57464,1.00315,36.7485,35.7507,37.7467,1.00119
2.09,3.58674,1.00285,36.7127,35.7149,37.711,1.00089
2.1,3.59709,1.00293,36.6768,35.6784,37.6747,1.00105
2.11,3.60543,1.00373,36.6408,35.6436,37.6383,1.00104
2.12,3.61413,1.00344,36.6047,35.607,37.603,1.00144
2.13,3.62606,1.00396,36.5685,35.5712,37.5655,1.0011
2.14,3.63917,1.00311,36.5322,35.5342,37.5305,1.00124
2.15,3.65186,1.00324,36.4957,35.4983,37.4935,1.00085
2.16,3.66192,1.00295,36.4591,35.4608,37.4574,1.00123
2.17,3.67181,1.00388,36.4225,35.4253,37.4198,1.00112
2.18,3.68203,1.00372,36.3857,35.3881,37.3837,1.00147
2.19,3.69512,1.00403,36.3488,35.3517,37.3459,1.00109
2.2,3.70826,1.00305,36.3118,35.3139,37.3103,1.00122
2.21,3.71973,1.00321,36.2747,35.2769,37.2724,1.00095
2.22,3.72931,1.00343,36.2374,35.2397,37.2355,1.00128
2.23,3.7386,1.00409,36.2001,35.2029,37.1972,1.00124
2.24,3.74937,1.00386,36.1626,35.1653,37.1604,1.0014
2.25,3.76279,1.00385,36.1251,35.1278,37.1226,1.00123
2.26,3.77507,1.00323,36.0874,35.0897,37.0855,1.00113
2.27,3.78616,1.0033,36.0496,35.0516,37.0473,1.00111
2.28,3.79546,1.00388,36.0117,35.0147,37.0094,1.00123
2.29,3.80513,1.00407,35.9737,34.9763,36.9711,1.00145
2.3,3.81649,1.00416,35.9356,34.9384,36.9328,1.00133
2.31,3.82912,1.00355,35.8973,34.8999,36.8954,1.00129
2.32,3.84166,1.00354,35.859,34.8617,36.8567,1.00104
2.33,3.85122,1.00332,35.8205,34.8223,36.8183,1.00128
2.34,3.86025,1.00422,35.782,34.7853,36.7794,1.00125
2.35,3.86897,1.00411,35.7433,34.7458,36.7408,1.00156
2.36,3.88047,1.00441,35.7046,34.7076,36.7014,1.00127
2.37,3.89307,1.00349,35.6657,34.6682,36.6639,1.00135
2.38,3.90586,1.00361,35.6267,34.6295,36.6244,1.00104
2.39,3.91557,1.00359,35.5876,34.5896,36.5852,1.00137
2.4,3.92501,1.0045,35.5484,34.552,36.5457,1.00133
2.41,3.93508,1.00428,35.5091,34.5119,36.5065,1.0016
2.42,3.94804,1.0043,35.4697,34.4726,36.4667,1.00131
2.43,3.96052,1.00354,35.4302,34.4327,36.4283,1.00132
2.44,3.97209,1.00373,35.3905,34.3932,36.3881,1.00116
2.45,3.98113,1.00395,35.3507,34.3531,36.348,1.00138
2.46,3.99069,1.00453,35.3109,34.3143,36.3082,1.00149
2.47,4.00182,1.00455,35.2709,34.274,36.268,1.00155
2.48,4.0152,1.00423,35.2308,34.2337,36.2281,1.00141
2.49,4.02863,1.00372,35.1906,34.1933,36.1884,1.00125
2.5,4.04017,1.00377,35.1503,34.1529,36.148,1.00131
2.51,4.05025,1.00441,35.1098,34.1128,36.1068,1.00141
2.52,4.06006,1.00455,35.0693,34.0724,36.0666,1.00162
2.53,4.07152,1.00473,35.0286,34.032,36.0255,1.00149
2.54,4.0842,1.00413,34.9878,33.9906,35.9854,1.0015
2.55,4.09611,1.00397,34.9469,33.9498,35.9443,1.00121
2.56,4.10583,1.00385,34.9059,33.9084,35.9037,1.00146
2.57,4.11434,1.00472,34.8648,33.8682,35.8617,1.00141
2.58,4.12375,1.00466,34.8237,33.8267,35.8209,1.00174
2.59,4.13593,1.00481,34.7824,33.7858,35.7791,1.00147
2.6,4.14885,1.00409,34.7409,33.7438,35.7387,1.00151
2.61,4.16125,1.00412,34.6994,33.7022,35.6965,1.00127
2.62,4.17057,1.00416,34.6577,33.6605,35.6553,1.00154
2.63,4.17891,1.00492,34.616,33.6196,35.6128,1.00151
2.64,4.18918,1.00485,34.5741,33.5773,35.5712,1.00175
2.65,4.20174,1.00475,34.5322,33.5355,35.529,1.00152
2.66,4.21485,1.00423,34.4901,33.4933,35.4878,1.00147
2.67,4.22609,1.00421,34.4479,33.4506,35.445,1.00139
2.68,4.23504,1.00455,34.4056,33.4087,35.4028,1.00157
2.69,4.24345,1.00495,34.3632,33.3667,35.3602,1.00167
2.7,4.25412,1.00507,34.3207,33.3242,35.3174,1.00167
2.71,4.26685,1.00466,34.2781,33.2812,35.2751,1.00161
2.72,4.27922,1.0044,34.2354,33.2388,35.2329,1.00143
2.73,4.28897,1.00429,34.1926,33.1952,35.1897,1.00154
2.74,4.29716,1.005,34.1496,33.1532,35.1464,1.00157
2.75,4.30634,1.00503,34.1066,33.1101,35.1037,1.00182
2.76,4.31764,1.00516,34.0635,33.0671,35.06,1.00162
2.77,4.32943,1.00454,34.0203,33.0232,35.0175,1.00166
2.78,4.34085,1.0047,33.9769,32.9806,34.9741,1.00142
2.79,4.35008,1.00455,33.9335,32.9362,34.9305,1.00167
2.8,4.35801,1.00514,33.8899,32.8935,34.8865,1.00161
2.81,4.36685,1.00502,33.8463,32.8498,34.8435,1.00187
2.82,4.37813,1.00541,33.8026,32.8064,34.799,1.00165
2.83,4.39014,1.00471,33.7587,32.7618,34.7558,1.00169
2.84,4.40131,1.00463,33.7148,32.7181,34.7119,1.00148
2.85,4.40997,1.00466,33.6707,32.6738,34.6679,1.0017
2.86,4.41835,1.00548,33.6266,32.6304,34.623,1.00176
2.87,4.42819,1.0055,33.5824,32.5862,34.579,1.00192
2.88,4.44027,1.00528,33.538,32.5416,34.5345,1.00171
2.89,4.45334,1.00459,33.4935,32.4967,34.4908,1.00161
2.9,4.46446,1.00466,33.449,32.4522,34.4461,1.00159
2.91,4.47304,1.0053,33.4043,32.408,34.401,1.00176
2.92,4.48127,1.00561,33.3595,32.3633,34.3559,1.0019
2.93,4.49174,1.00545,33.3146,32.3183,34.3111,1.00182
2.94,4.50399,1.00506,33.2697,32.2732,34.2667,1.00175
2.95,4.51559,1.00499,33.2246,32.2282,34.2214,1.0016
2.96,4.52502,1.00497,33.1794,32.1826,34.1762,1.00174
2.97,4.53286,1.00553,33.1341,32.1381,34.1306,1.00176
2.98,4.54143,1.00552,33.0887,32.0925,34.0854,1.00198
2.99,4.5526,1.0056,33.0432,32.0471,34.0396,1.0018
3,4.56489,1.00513,32.9977,32.0013,33.9948,1.00184
3.01,4.57679,1.00514,32.952,31.9557,33.9487,1.00162
3.02,4.58574,1.00504,32.9061,31.9093,33.903,1.00183
3.03,4.59337,1.00574,32.8603,31.8644,33.8566,1.00183
3.04,4.6021,1.00581,32.8143,31.8183,33.8109,1.00206
3.05,4.61331,1.00581,32.7682,31.772,33.7642,1.00186
3.06,4.62535,1.00521,32.722,31.7257,33.719,1.00183
3.07,4.63636,1.00518,32.6757,31.6794,33.6724,1.00168
3.08,4.64481,1.00543,32.6293,31.6329,33.6258,1.00188
3.09,4.65292,1.00599,32.5828,31.587,33.579,1.00197
3.1,4.66219,1.00599,32.5362,31.5405,33.5326,1.00204
3.11,4.67397,1.00568,32.4896,31.4932,33.4857,1.00191
3.12,4.6865,1.00531,32.4428,31.4467,33.4397,1.00179
3.13,4.6964,1.0053,32.3959,31.3995,33.3926,1.00182
3.14,4.70445,1.00581,32.3489,31.3528,33.345,1.0019
3.15,4.71222,1.00602,32.3018,31.3059,33.298,1.00208
3.16,4.72234,1.00615,32.2546,31.2591,33.2508,1.00201
3.17,4.73445,1.00573,32.2073,31.2111,33.2036,1.00198
3.18,4.74593,1.00554,32.1599,31.164,33.1565,1.00178
3.19,4.75459,1.00545,32.1124,31.116,33.109,1.00193
3.2,4.76196,1.00613,32.0648,31.0691,33.0608,1.00195
3.21,4.77028,1.00616,32.0172,31.0213,33.0134,1.00218
3.22,4.78034,1.00626,31.9694,30.9739,32.9654,1.00202
3.23,4.79159,1.00573,31.9216,30.9254,32.918,1.00202
3.24,4.8017,1.00557,31.8736,30.8775,32.87,1.00182
3.25,4.80936,1.00555,31.8256,30.8292,32.8221,1.00201
3.26,4.81541,1.00623,31.7774,30.7818,32.7735,1.00203
3.27,4.82279,1.0062,31.7292,30.7334,32.7255,1.0022
3.28,4.83185,1.00611,31.681,30.6853,32.6772,1.00202
3.29,4.84122,1.00571,31.6326,30.6367,32.6293,1.00197
3.3,4.84913,1.00568,31.5842,30.5881,32.5806,1.00189
3.31,4.85412,1.00595,31.5356,30.5398,32.532,1.00204
3.32,4.85872,1.00646,31.4871,30.4918,32.4832,1.00214
3.33,4.86474,1.00649,31.4385,30.443,32.4344,1.00217
3.34,4.87255,1.0062,31.3898,30.394,32.3858,1.00209
3.35,4.88009,1.00592,31.341,30.3452,32.3374,1.00196
3.36,4.88579,1.00572,31.2922,30.2959,32.2885,1.002
3.37,4.89091,1.00613,31.2433,30.2474,32.2393,1.00204
3.38,4.89626,1.0064,31.1944,30.1989,32.1905,1.00222
3.39,4.90479,1.00651,31.1454,30.1498,32.1412,1.00214
3.4,4.91495,1.00603,31.0963,30.1003,32.0926,1.00214
3.41,4.92466,1.00601,31.0471,30.0516,32.0435,1.00195
3.42,4.93304,1.00595,30.9978,30.0018,31.9942,1.0021
3.43,4.94079,1.00646,30.9484,29.9528,31.9442,1.0021
3.44,4.94855,1.00646,30.899,29.9036,31.8953,1.00228
3.45,4.9589,1.00661,30.8495,29.8541,31.8452,1.00214
3.46,4.97012,1.00617,30.7998,29.804,31.796,1.00215
3.47,4.98,1.00612,30.7501,29.7545,31.7463,1.002
3.48,4.98716,1.00618,30.7002,29.7044,31.6964,1.00216
3.49,4.9936,1.00666,30.6503,29.6548,31.646,1.00219
3.5,5.00179,1.00666,30.6004,29.6051,31.5964,1.00231
3.51,5.01251,1.00664,30.5503,29.5549,31.5461,1.0022
3.52,5.02343,1.00626,30.5001,29.5045,31.4963,1.00214
3.53,5.03295,1.00617,30.4498,29.4542,31.446,1.00209
3.54,5.03984,1.00642,30.3995,29.4039,31.3955,1.00218
3.55,5.04686,1.00682,30.349,29.3537,31.3447,1.0023
3.56,5.05535,1.00686,30.2985,29.3034,31.2944,1.00232
3.57,5.06585,1.00661,30.2479,29.2525,31.2439,1.00226
3.58,5.07618,1.00637,30.1972,29.2017,31.1933,1.00211
3.59,5.08487,1.00626,30.1464,29.1506,31.1425,1.00218
3.6,5.09175,1.00679,30.0955,29.1003,31.0913,1.00223
3.61,5.09896,1.00698,30.0446,29.0494,31.0403,1.00241
3.62,5.108,1.00694,29.9936,28.9984,30.9892,1.0023
3.63,5.11885,1.0066,29.9424,28.947,30.9384,1.0023
3.64,5.12937,1.00655,29.8912,28.8959,30.8871,1.00213
3.65,5.13754,1.00645,29.8399,28.8441,30.8358,1.00228
3.66,5.14433,1.00697,29.7884,28.7933,30.784,1.00229
3.67,5.15214,1.00717,29.737,28.742,30.7326,1.00247
3.68,5.16196,1.00708,29.6854,28.6903,30.6809,1.00234
3.69,5.1733,1.00659,29.6337,28.6383,30.6298,1.0023
3.7,5.18303,1.00666,29.5819,28.5867,30.5778,1.0022
3.71,5.19073,1.00673,29.5301,28.5346,30.5259,1.00233
3.72,5.19697,1.00718,29.4781,28.4831,30.4736,1.0024
3.73,5.2048,1.00727,29.4261,28.4312,30.4217,1.00248
3.74,5.21469,1.00712,29.374,28.3789,30.3695,1.00239
3.75,5.22458,1.00672,29.3218,28.3266,30.3178,1.0023
3.76,5.23339,1.00671,29.2696,28.2742,30.2654,1.00228
3.77,5.23978,1.00707,29.2172,28.222,30.2127,1.00236
3.78,5.24577,1.00725,29.1648,28.1697,30.1603,1.00249
3.79,5.25384,1.00743,29.1123,28.1175,30.1077,1.00249
