time,velocity,ratio,centerX,Xmax,Xmin,Ymax
0,0,1,4.75,3.75,5.75,1
0.01,0.0201173,0.999982,4.7499,3.74988,5.74992,1
0.02,0.0402865,1.00001,4.7496,3.7496,5.74959,1
0.03,0.0604026,1.00007,4.7491,3.74914,5.74904,1.00002
0.04,0.0804353,1.00011,4.74839,3.74847,5.7483,1.00003
0.05,0.100408,1.00013,4.74749,3.74757,5.74739,1.00005
0.06,0.120333,1.00019,4.74639,3.7465,5.74624,1.00006
0.07,0.140181,1.00023,4.74509,3.74524,5.7449,1.00006
0.08,0.159995,1.00026,4.74358,3.74376,5.74338,1.00006
0.09,0.179866,1.00028,4.74189,3.7421,5.74165,1.00006
0.1,0.200066,1.00032,4.73999,3.74024,5.73973,1.00007
0.11,0.220931,1.00028,4.73788,3.73811,5.73773,1.00009
0.12,0.242301,1.00021,4.73557,3.73574,5.73558,1.00013
0.13,0.263228,1.00023,4.73304,3.73322,5.73309,1.00017
0.14,0.283006,1.00025,4.73031,3.73052,5.73039,1.00018
0.15,0.303302,1.00052,4.72738,3.72769,5.72681,1.00008
0.16,0.322918,1.00058,4.72425,3.72473,5.72368,1.00006
0.17,0.343197,1.00051,4.72092,3.72135,5.72051,1.00009
0.18,0.363271,1.00049,4.71739,3.7178,5.71719,1.00019
0.19,0.382481,1.00034,4.71366,3.71369,5.71356,1.00028
0.2,0.402135,1.00043,4.70974,3.70971,5.7093,1.00023
0.21,0.422017,1.00051,4.70562,3.70583,5.70517,1.00018
0.22,0.441559,1.00072,4.7013,3.70206,5.70085,1.00012
0.23,0.461691,1.00086,4.69679,3.69776,5.69631,1.00013
0.24,0.481366,1.00082,4.69207,3.69259,5.69136,1.0002
0.25,0.500825,1.00069,4.68716,3.68742,5.68659,1.00028
0.26,0.519789,1.00059,4.68206,3.68227,5.6818,1.00036
0.27,0.540749,1.00094,4.67676,3.67744,5.67628,1.00035
0.28,0.560465,1.00111,4.67125,3.67204,5.67041,1.00029
0.29,0.579439,1.00112,4.66555,3.66632,5.6646,1.00025
0.3,0.598497,1.00133,4.65966,3.66044,5.6584,1.0003
0.31,0.617498,1.00124,4.65359,3.6545,5.65285,1.00041
0.32,0.636892,1.00109,4.64731,3.64818,5.64694,1.00047
0.33,0.657762,1.00119,4.64084,3.64162,5.64025,1.0005
0.34,0.677471,1.00133,4.63416,3.63486,5.6332,1.00049
0.35,0.696385,1.00163,4.62729,3.62833,5.62593,1.00042
0.36,0.714905,1.00159,4.62024,3.62144,5.61905,1.00039
0.37,0.733654,1.00155,4.613,3.61413,5.612,1.00048
0.38,0.752158,1.00174,4.60557,3.60683,5.60443,1.00053
0.39,0.770753,1.0015,4.59795,3.59858,5.5969,1.00066
0.4,0.789475,1.00151,4.59015,3.59091,5.58908,1.00059
0.41,0.807948,1.00177,4.58217,3.58355,5.58113,1.00056
0.42,0.826251,1.00199,4.574,3.57563,5.57272,1.00053
0.43,0.84455,1.00213,4.56564,3.56732,5.56411,1.00052
0.44,0.862772,1.00187,4.55711,3.5583,5.5558,1.00062
0.45,0.881064,1.00207,4.54839,3.54965,5.54697,1.00073
0.46,0.898615,1.00202,4.53949,3.54078,5.53829,1.00078
0.47,0.917006,1.00222,4.53041,3.53194,5.52915,1.00082
0.48,0.934937,1.00246,4.52115,3.52275,5.51925,1.0007
0.49,0.95288,1.00266,4.51172,3.5134,5.50964,1.00078
0.5,0.97078,1.00267,4.5021,3.50391,5.50022,1.00082
0.51,0.988542,1.00262,4.4923,3.49435,5.49088,1.00088
0.52,1.00652,1.00267,4.48233,3.48411,5.48082,1.00103
0.53,1.02461,1.0029,4.47217,3.47412,5.4704,1.00104
0.54,1.04216,1.00301,4.46184,3.46362,5.45966,1.00102
0.55,1.06062,1.00311,4.45133,3.45343,5.4491,1.00095
0.56,1.07845,1.00335,4.44063,3.44313,5.43839,1.00097
0.57,1.09603,1.00334,4.42976,3.43214,5.42755,1.00104
0.58,1.11377,1.00339,4.41871,3.42088,5.41639,1.00113
0.59,1.1314,1.00313,4.40749,3.40929,5.40546,1.00121
0.6,1.14891,1.00345,4.39609,3.39833,5.39384,1.0012
0.61,1.16633,1.00365,4.38451,3.38711,5.38217,1.00117
0.62,1.18396,1.00383,4.37276,3.37555,5.37027,1.00118
0.63,1.20137,1.00398,4.36083,3.3636,5.35802,1.00118
0.64,1.21869,1.00396,4.34873,3.35136,5.34607,1.0013
0.65,1.236,1.00398,4.33646,3.33899,5.33389,1.00142
0.66,1.25317,1.0041,4.32402,3.32683,5.32159,1.00147
0.67,1.27034,1.00434,4.3114,3.31412,5.30846,1.0015
0.68,1.28765,1.00464,4.29861,3.30163,5.29526,1.00144
0.69,1.30481,1.00468,4.28565,3.28872,5.28237,1.00149
0.7,1.32191,1.00474,4.27252,3.2758,5.26937,1.00151
0.71,1.33897,1.00496,4.25921,3.26277,5.25614,1.00162
0.72,1.35623,1.00494,4.24574,3.24902,5.24269,1.00176
0.73,1.37327,1.0051,4.23209,3.23537,5.22873,1.00176
0.74,1.39056,1.00512,4.21827,3.22159,5.21486,1.00174
0.75,1.40758,1.00541,4.20428,3.20797,5.20061,1.00171
0.76,1.42488,1.00566,4.19012,3.19413,5.18635,1.00174
0.77,1.44191,1.00565,4.17579,3.17968,5.17207,1.00182
0.78,1.45879,1.00565,4.16128,3.16492,5.15747,1.0019
0.79,1.47556,1.00562,4.14661,3.15016,5.14297,1.00201
0.8,1.4925,1.00586,4.13177,3.13566,5.12801,1.00202
0.81,1.50985,1.00615,4.11676,3.12106,5.11273,1.00196
0.82,1.52679,1.00629,4.10158,3.10588,5.09734,1.00199
0.83,1.54343,1.00644,4.08623,3.09064,5.08189,1.00204
0.84,1.55994,1.00648,4.07071,3.07514,5.06656,1.00216
0.85,1.57573,1.00657,4.05504,3.05948,5.05094,1.00227
0.86,1.592,1.00679,4.0392,3.04373,5.03486,1.00233
0.87,1.60848,1.00703,4.0232,3.02775,5.01851,1.00237
0.88,1.62517,1.00721,4.00703,3.01171,5.002,1.00232
0.89,1.64145,1.00728,3.9907,2.99562,4.98585,1.00236
0.9,1.65791,1.00744,3.9742,2.97936,4.96942,1.00243
0.91,1.67431,1.00757,3.95754,2.96277,4.95276,1.00253
0.92,1.69056,1.00752,3.94072,2.94562,4.93591,1.00263
0.93,1.70684,1.00767,3.92373,2.92871,4.91871,1.00264
0.94,1.72309,1.00791,3.90658,2.91185,4.90137,1.00263
0.95,1.73918,1.00819,3.88927,2.89492,4.88388,1.00262
0.96,1.75571,1.00836,3.8718,2.87761,4.86627,1.00264
0.97,1.77171,1.00832,3.85416,2.85972,4.84864,1.00274
0.98,1.78767,1.00841,3.83636,2.84192,4.83086,1.00283
0.99,1.80361,1.00846,3.81841,2.82402,4.81306,1.00293
1,1.81953,1.00876,3.80029,2.80617,4.7947,1.00298
1.01,1.83543,1.00904,3.78202,2.78811,4.77608,1.00297
1.02,1.85118,1.00927,3.76359,2.76984,4.75746,1.00302
1.03,1.8669,1.00938,3.745,2.75134,4.73884,1.00307
1.04,1.88115,1.00947,3.72625,2.73277,4.7203,1.00318
1.05,1.8961,1.00974,3.70737,2.71392,4.70118,1.00331
1.06,1.91154,1.00995,3.68833,2.69487,4.68186,1.00338
1.07,1.92707,1.01002,3.66914,2.67559,4.66244,1.00338
1.08,1.94247,1.01014,3.64979,2.65651,4.643,1.00332
1.09,1.95772,1.01032,3.63029,2.63739,4.62364,1.00337
1.1,1.97311,1.01057,3.61064,2.61799,4.60395,1.00347
1.11,1.9884,1.01065,3.59083,2.59817,4.5841,1.00354
1.12,2.00363,1.01054,3.57088,2.57787,4.56412,1.00359
1.13,2.01888,1.0107,3.55076,2.55784,4.54387,1.00364
1.14,2.03404,1.01099,3.5305,2.53793,4.52343,1.00366
1.15,2.04903,1.0112,3.51008,2.51778,4.50282,1.00364
1.16,2.06406,1.01127,3.48952,2.49719,4.48218,1.00368
1.17,2.07889,1.01147,3.46881,2.47648,4.46138,1.00384
1.18,2.09361,1.01165,3.44794,2.4557,4.44044,1.00393
1.19,2.10835,1.0117,3.42693,2.43483,4.41962,1.00401
1.2,2.1231,1.01203,3.40578,2.41382,4.3981,1.00407
1.21,2.13755,1.01236,3.38448,2.39276,4.37637,1.00407
1.22,2.15203,1.0125,3.36303,2.37146,4.35494,1.00413
1.23,2.16635,1.0127,3.34144,2.35016,4.33336,1.00419
1.24,2.18077,1.01287,3.3197,2.32855,4.31158,1.00428
1.25,2.19504,1.01296,3.29783,2.30649,4.28961,1.00441
1.26,2.20944,1.01321,3.2758,2.28461,4.26727,1.00442
1.27,2.22424,1.01321,3.25364,2.26232,4.24503,1.00445
1.28,2.24075,1.01337,3.23131,2.24029,4.22267,1.00444
1.29,2.25519,1.0137,3.20883,2.21832,4.20011,1.00447
1.3,2.26963,1.01375,3.18621,2.19556,4.17746,1.00457
1.31,2.28391,1.01383,3.16344,2.17288,4.15474,1.00463
1.32,2.29725,1.01394,3.14054,2.14986,4.13176,1.00477
1.33,2.31141,1.01414,3.1175,2.127,4.1085,1.00476
1.34,2.32541,1.01441,3.09431,2.10414,4.08524,1.00482
1.35,2.33919,1.0147,3.07099,2.08097,4.06148,1.00481
1.36,2.35305,1.0149,3.04753,2.05761,4.03794,1.00491
1.37,2.3667,1.01494,3.02393,2.03396,4.01438,1.005
1.38,2.38064,1.0152,3.0002,2.01046,3.99062,1.00513
1.39,2.39425,1.01528,2.97632,1.98657,3.9667,1.00519
1.4,2.40747,1.01564,2.95232,1.96282,3.94236,1.00526
1.41,2.42113,1.0158,2.92817,1.93882,3.91806,1.00525
1.42,2.43466,1.01603,2.9039,1.91479,3.8937,1.00531
1.43,2.44811,1.01621,2.87948,1.89066,3.86935,1.00538
1.44,2.46131,1.01641,2.85494,1.86619,3.84468,1.00548
1.45,2.47449,1.01647,2.83026,1.84138,3.81994,1.00557
1.46,2.48788,1.01663,2.80545,1.81652,3.79482,1.00559
1.47,2.5013,1.01684,2.7805,1.79181,3.76981,1.00565
1.48,2.51435,1.01697,2.75543,1.76691,3.74463,1.00564
1.49,2.52745,1.0173,2.73022,1.7421,3.71928,1.00569
1.5,2.54045,1.01726,2.70488,1.71659,3.69405,1.00579
1.51,2.55323,1.01755,2.67941,1.69133,3.6684,1.00588
1.52,2.56598,1.01757,2.65382,1.66568,3.64292,1.00599
1.53,2.57847,1.01789,2.6281,1.64022,3.61691,1.00602
1.54,2.59075,1.01824,2.60225,1.6147,3.59073,1.00604
1.55,2.60287,1.01843,2.57628,1.58874,3.56454,1.00611
1.56,2.61516,1.01866,2.5502,1.56292,3.5384,1.00618
1.57,2.62729,1.01876,2.52398,1.53669,3.51219,1.00628
1.58,2.63952,1.01893,2.49765,1.51045,3.48585,1.00639
1.59,2.65157,1.01915,2.4712,1.48418,3.4593,1.00647
1.6,2.66355,1.01942,2.44462,1.45766,3.43232,1.0065
1.61,2.67525,1.0195,2.41793,1.43113,3.40563,1.0065
1.62,2.68693,1.01979,2.39112,1.40474,3.37883,1.00657
1.63,2.69838,1.02006,2.36419,1.378,3.35171,1.00665
1.64,2.70978,1.02008,2.33715,1.35089,3.32467,1.00671
1.65,2.72119,1.02017,2.31,1.32367,3.29754,1.00684
1.66,2.73146,1.02047,2.28274,1.29652,3.26991,1.00689
1.67,2.74236,1.02067,2.25537,1.26938,3.24239,1.00689
1.68,2.75327,1.0208,2.22789,1.24213,3.21489,1.0069
1.69,2.76395,1.02106,2.20031,1.2147,3.18714,1.00699
1.7,2.77424,1.02128,2.17262,1.18715,3.15939,1.0071
1.71,2.78434,1.02147,2.14482,1.15952,3.13158,1.0072
1.72,2.79553,1.02151,2.11693,1.1316,3.10373,1.00727
1.73,2.80517,1.02183,2.08892,1.10377,3.0754,1.00734
1.74,2.81466,1.0223,2.06083,1.07611,3.04695,1.00739
1.75,2.82391,1.02259,2.03263,1.04812,3.0185,1.00745
1.76,2.83285,1.02264,2.00435,1.01991,2.99032,1.00752
1.77,2.84157,1.02269,1.97598,0.991552,2.96207,1.00762
1.78,2.85014,1.02307,1.94752,0.963269,2.93328,1.00773
1.79,2.85853,1.02333,1.91898,0.934965,2.90461,1.0078
1.8,2.86659,1.0235,1.89036,0.906492,2.87589,1.00784
1.81,2.87419,1.02364,1.86165,0.877974,2.84714,1.00786
1.82,2.88139,1.02385,1.83288,0.849484,2.81835,1.00791
1.83,2.88811,1.02415,1.80403,0.820873,2.78929,1.00798
1.84,2.89427,1.02438,1.77512,0.792058,2.76025,1.00809
1.85,2.90017,1.0245,1.74615,0.763129,2.7313,1.0082
1.86,2.90548,1.02477,1.71712,0.734319,2.70209,1.00826
1.87,2.91037,1.02515,1.68804,0.705594,2.67274,1.00831
1.88,2.91457,1.02545,1.65892,0.676714,2.6434,1.00837
1.89,2.91791,1.02564,1.62975,0.647722,2.61419,1.00845
1.9,2.92047,1.0259,1.60056,0.618738,2.58495,1.00857
1.91,2.92242,1.02624,1.57135,0.589895,2.55567,1.00868
1.92,2.92364,1.02665,1.54212,0.561071,2.52631,1.0088
1.93,2.92381,1.02703,1.51288,0.532202,2.49686,1.00888
1.94,2.92283,1.02742,1.48365,0.503355,2.46736,1.00893
1.95,2.92081,1.02778,1.45443,0.474479,2.43797,1.00902
1.96,2.91758,1.02811,1.42524,0.445666,2.40874,1.00913
1.97,2.91311,1.02848,1.39609,0.416904,2.37953,1.00926
1.98,2.90717,1.02894,1.36699,0.388189,2.35018,1.00939
1.99,2.89957,1.02943,1.33795,0.359715,2.32098,1.00949
2,2.89033,1.03002,1.309,0.331514,2.29187,1.0096
2.01,2.87899,1.03061,1.28016,0.303515,2.26293,1.00969
2.02,2.86529,1.03133,1.25144,0.275615,2.23392,1.00983
2.03,2.84891,1.03207,1.22287,0.247905,2.20517,1.01002
2.04,2.82966,1.03285,1.19447,0.220444,2.1766,1.01021
2.05,2.80731,1.03388,1.16629,0.193432,2.14805,1.01042
2.06,2.78135,1.03524,1.13834,0.167272,2.11976,1.01064
2.07,2.75127,1.03663,1.11068,0.141386,2.09171,1.01089
2.08,2.71617,1.0384,1.08334,0.116394,2.0639,1.01115
2.09,2.67513,1.04059,1.05639,0.0925214,2.03654,1.01146
2.1,2.62709,1.04323,1.02987,0.0697253,2.00959,1.01186
2.11,2.57085,1.04694,1.00388,0.0489517,1.98292,1.01237
2.12,2.50451,1.05221,0.978502,0.031327,1.95674,1.01297
2.13,2.42621,1.05971,0.953845,0.018175,1.93118,1.01361
2.14,2.33236,1.07048,0.930047,0.0105911,1.90584,1.01441
2.15,2.21893,1.08353,0.907281,0.00708983,1.88126,1.01536
2.16,2.07766,1.09698,0.885777,0.00424786,1.85796,1.01674
2.17,1.89997,1.11043,0.865862,0.000209507,1.83538,1.01892
2.18,1.68434,1.1277,0.847913,-0,1.81356,1.02258
2.19,1.43588,1.14658,0.832286,0.000216941,1.79294,1.02775
2.2,1.1568,1.16423,0.819298,-0,1.77407,1.03272
2.21,0.851892,1.1822,0.809231,-0,1.75495,1.03735
2.22,0.534367,1.20034,0.802297,-0,1.73594,1.04186
2.23,0.215693,1.21551,0.798541,4.20024e-09,1.71998,1.04533
2.24,-0.0975742,1.21988,0.79795,1.86269e-05,1.71655,1.04698
2.25,-0.398347,1.21815,0.800443,-0,1.71901,1.047
2.26,-0.677066,1.21231,0.805832,0.000225161,1.72607,1.04613
2.27,-0.960502,1.1973,0.814007,7.175e-05,1.73976,1.04146
2.28,-1.23308,1.1751,0.824974,2.54368e-05,1.76341,1.03608
2.29,-1.496,1.15191,0.83862,-0,1.78917,1.03048
2.3,-1.72798,1.13063,0.854756,-0,1.81226,1.0245
2.31,-1.92073,1.10476,0.873027,-0,1.84373,1.01844
2.32,-2.0702,1.08425,0.893011,1.84332e-06,1.86901,1.01323
2.33,-2.17658,1.06627,0.914272,0.000386567,1.89371,1.00939
2.34,-2.24299,1.04797,0.936394,0.000455548,1.92048,1.00606
2.35,-2.27239,1.03175,0.95899,0.000455803,1.94703,1.00419
2.36,-2.27258,1.0177,0.981727,0.000456373,1.9729,1.00368
2.37,-2.25038,1.00399,1.00435,0.000457568,1.99764,1.00257
2.38,-2.21464,0.995459,1.02668,0.00884868,2.02156,1.00179
2.39,-2.17187,0.997565,1.04861,0.0377414,2.04437,1.00087
2.4,-2.12939,1.00287,1.0701,0.0704781,2.06501,1.00013
2.41,-2.09676,1.00609,1.09122,0.0992593,2.08661,0.999728
2.42,-2.07376,1.00809,1.11206,0.126184,2.10771,0.998773
2.43,-2.05591,1.00989,1.13271,0.151528,2.12878,0.998404
2.44,-2.04121,1.0157,1.15319,0.176019,2.15023,1.0026
2.45,-2.02769,1.02336,1.17353,0.199183,2.16757,1.00718
2.46,-2.01442,1.02681,1.19374,0.220956,2.18907,1.01044
2.47,-2.00145,1.02817,1.21382,0.242123,2.2116,1.01248
2.48,-1.99071,1.03894,1.23377,0.261465,2.21235,1.01342
2.49,-1.98333,1.04814,1.25364,0.279647,2.21495,1.01423
2.5,-1.97257,1.04822,1.27342,0.297616,2.23006,1.01282
2.51,-1.96522,1.04457,1.2931,0.314402,2.2543,1.01318
2.52,-1.96829,1.04049,1.31276,0.334758,2.28304,1.01359
2.53,-1.98086,1.0303,1.3325,0.350068,2.31273,1.01107
2.54,-1.99713,1.01771,1.35238,0.363554,2.34172,1.0066
2.55,-2.01214,1.01208,1.37243,0.389461,2.36902,1.00173
2.56,-2.02245,1.00468,1.39261,0.40606,2.39473,0.998984
2.57,-2.01887,0.992354,1.41283,0.410085,2.41886,0.996709
2.58,-1.9993,0.984077,1.43293,0.415139,2.43851,0.995576
2.59,-1.97163,0.982576,1.45279,0.430484,2.45979,0.996972
2.6,-1.9378,0.988565,1.47233,0.455091,2.4741,0.997961
2.61,-1.89855,0.993946,1.49152,0.484246,2.49141,0.997505
2.62,-1.85718,0.999234,1.51029,0.514353,2.51154,0.997827
2.63,-1.81792,1.01038,1.52866,0.541631,2.52103,0.999975
2.64,-1.78311,1.01991,1.54666,0.56534,2.53487,1.00437
2.65,-1.75531,1.02348,1.56435,0.588921,2.55813,1.00772
2.66,-1.73108,1.02464,1.58178,0.605776,2.57882,1.01083
2.67,-1.70883,1.03172,1.59897,0.624376,2.58858,1.01326
2.68,-1.693,1.03604,1.61598,0.638685,2.59308,1.01241
2.69,-1.67885,1.03554,1.63284,0.648436,2.60035,1.01064
2.7,-1.66385,1.03522,1.64955,0.665672,2.61523,1.00911
2.71,-1.65352,1.03112,1.66613,0.679805,2.63659,1.00884
2.72,-1.65077,1.01864,1.68264,0.686907,2.66459,1.00728
2.73,-1.65359,1.00814,1.69916,0.698982,2.69054,1.00389
2.74,-1.65568,1.00087,1.7157,0.719202,2.71901,1.00077
2.75,-1.65292,0.996151,1.73225,0.738619,2.74043,0.997055
2.76,-1.64442,0.988694,1.74874,0.750433,2.76094,0.993889
2.77,-1.62622,0.980386,1.7651,0.755794,2.78136,0.99292
2.78,-1.60002,0.980743,1.78124,0.763773,2.79147,0.994325
2.79,-1.56918,0.984212,1.79709,0.776368,2.80211,0.996878
2.8,-1.53469,0.989202,1.81261,0.799254,2.81723,0.998091
2.81,-1.49516,0.996441,1.82776,0.823169,2.82848,0.999089
2.82,-1.4549,1.01001,1.84251,0.850255,2.83319,1.00139
2.83,-1.41736,1.02043,1.85687,0.874508,2.84155,1.00362
2.84,-1.38649,1.02417,1.87088,0.891683,2.85726,1.00654
2.85,-1.36353,1.02727,1.88462,0.910562,2.87608,1.00956
2.86,-1.34341,1.02993,1.89816,0.924828,2.89013,1.01207
2.87,-1.32588,1.02816,1.9115,0.930826,2.89905,1.01183
2.88,-1.31255,1.02651,1.92469,0.937697,2.90338,1.0089
2.89,-1.29988,1.02498,1.93775,0.949501,2.91361,1.00659
2.9,-1.28694,1.02016,1.95068,0.957886,2.9274,1.00461
2.91,-1.27707,1.01009,1.9635,0.962165,2.94717,1.00251
2.92,-1.27153,0.997435,1.97624,0.967307,2.97324,1.00039
2.93,-1.26684,0.991513,1.98893,0.980345,2.99421,0.998387
2.94,-1.25628,0.98724,2.00155,0.996142,3.01379,0.995954
2.95,-1.2409,0.98289,2.01404,1.01302,3.03345,0.992928
2.96,-1.22051,0.979717,2.02635,1.02219,3.0465,0.991627
2.97,-1.1946,0.982097,2.03843,1.02871,3.05143,0.993256
2.98,-1.16429,0.98611,2.05023,1.03748,3.05715,0.995808
2.99,-1.13433,0.989407,2.06172,1.04745,3.066,0.998581
3,-1.10172,0.998112,2.0729,1.06609,3.07209,1.00111
3.01,-1.06749,1.0104,2.08375,1.08818,3.0741,1.00329
3.02,-1.03482,1.01986,2.09426,1.1065,3.07709,1.00486
3.03,-1.00525,1.02551,2.10445,1.12292,3.08473,1.00593
3.04,-0.983328,1.02865,2.11439,1.13964,3.1002,1.00836
3.05,-0.965876,1.02836,2.12413,1.14997,3.11459,1.01017
3.06,-0.949654,1.0239,2.13371,1.15271,3.12553,1.00999
3.07,-0.934731,1.01768,2.14313,1.15413,3.13462,1.00775
3.08,-0.922475,1.015,2.15242,1.15961,3.13904,1.00456
3.09,-0.908963,1.00997,2.16158,1.16348,3.14683,1.00156
3.1,-0.895258,1.00064,2.1706,1.16615,3.1619,0.998514
3.11,-0.88298,0.990591,2.17949,1.1664,3.17864,0.996655
3.12,-0.871411,0.984293,2.18826,1.17054,3.1944,0.996039
3.13,-0.856906,0.981314,2.1969,1.18326,3.21068,0.994767
3.14,-0.836726,0.978369,2.20537,1.19631,3.22655,0.993161
3.15,-0.813499,0.98044,2.21362,1.21024,3.23469,0.992424
3.16,-0.78857,0.985642,2.22163,1.22019,3.23597,0.993417
3.17,-0.761165,0.99032,2.22939,1.22531,3.23675,0.995986
3.18,-0.734386,0.994801,2.23686,1.23008,3.23814,0.998808
3.19,-0.707431,1.0019,2.24407,1.24035,3.24157,1.00251
3.2,-0.680898,1.01155,2.25102,1.25342,3.24089,1.00521
3.21,-0.653564,1.01942,2.25769,1.2652,3.23936,1.00624
3.22,-0.629026,1.02427,2.2641,1.27804,3.24355,1.00661
3.23,-0.607808,1.02789,2.27028,1.29173,3.25127,1.0071
3.24,-0.589098,1.02652,2.27626,1.29942,3.26319,1.00793
3.25,-0.571614,1.0191,2.28206,1.30067,3.27785,1.00747
3.26,-0.555463,1.01133,2.2877,1.29827,3.28718,1.00572
3.27,-0.541694,1.00562,2.29318,1.29596,3.29052,1.00289
3.28,-0.526557,1.0003,2.29853,1.29664,3.29481,0.999385
3.29,-0.509834,0.992364,2.30371,1.29565,3.30294,0.995981
3.3,-0.492971,0.985809,2.30872,1.2942,3.31098,0.994081
3.31,-0.474441,0.981597,2.31356,1.29466,3.31931,0.993698
3.32,-0.455249,0.978127,2.31821,1.29853,3.3307,0.993859
3.33,-0.432598,0.977905,2.32266,1.30768,3.34005,0.993732
3.34,-0.405058,0.981852,2.32685,1.32166,3.34649,0.99404
3.35,-0.375179,0.988795,2.33075,1.33246,3.34566,0.995321
3.36,-0.350268,0.995168,2.33437,1.33757,3.3414,0.997075
3.37,-0.32788,1.00126,2.33776,1.33987,3.33734,0.999992
3.38,-0.306321,1.00806,2.34094,1.34429,3.33492,1.00333
3.39,-0.283655,1.01472,2.34389,1.34833,3.33156,1.00621
3.4,-0.263263,1.01937,2.34662,1.35321,3.32967,1.00737
3.41,-0.244547,1.02286,2.34916,1.35894,3.3282,1.00714
3.42,-0.216905,1.02414,2.35146,1.36458,3.33043,1.00666
3.43,-0.183874,1.02127,2.35346,1.37095,3.34133,1.00614
3.44,-0.164182,1.01399,2.35519,1.37141,3.35409,1.00521
3.45,-0.14719,1.00665,2.35677,1.36691,3.36145,1.0039
3.46,-0.13202,1.00061,2.35816,1.35941,3.36079,1.0013
3.47,-0.111841,0.993675,2.35939,1.35551,3.36454,0.998158
3.48,-0.0886665,0.988821,2.3604,1.35256,3.36552,0.995229
3.49,-0.0730345,0.985619,2.3612,1.35021,3.36724,0.994014
3.5,-0.0480984,0.981554,2.36182,1.34149,3.36635,0.993754
3.51,-0.0177146,0.98174,2.36214,1.34331,3.36818,0.993948
3.52,0.00387495,0.981798,2.36221,1.34699,3.37264,0.994391
