time,velocity,ratio,centerX,Xmax,Xmin,Ymax
0,0,1,2.75,1.75,3.75,1
0.01,0.0195515,0.999998,2.7499,1.7499,3.7499,0.999997
0.02,0.0391715,1.00006,2.74961,1.74966,3.74957,1.00002
0.03,0.0587425,1.0001,2.74912,1.74919,3.74906,1.00003
0.04,0.078248,1.00014,2.74844,1.74853,3.74835,1.00005
0.05,0.0975695,1.00019,2.74756,1.74768,3.74743,1.00006
0.06,0.11672,1.00017,2.74649,1.7466,3.74637,1.00005
0.07,0.135711,1.00018,2.74522,1.74535,3.74508,1.00004
0.08,0.154651,1.00012,2.74377,1.74387,3.74366,1.00002
0.09,0.17377,1.00006,2.74213,1.74221,3.74205,0.99998
0.1,0.193972,1.00001,2.7403,1.74036,3.74027,0.999969
0.11,0.217158,0.999924,2.73824,1.73824,3.73842,1.00002
0.12,0.242338,0.999986,2.73595,1.73599,3.73623,1.00011
0.13,0.267516,1.00021,2.7334,1.73362,3.73349,1.00014
0.14,0.286381,1.00059,2.73063,1.73112,3.73023,1.00015
0.15,0.305234,1.00064,2.72767,1.72819,3.72703,1.00006
0.16,0.324768,1.00048,2.72452,1.72486,3.72417,1.00013
0.17,0.34715,1.00011,2.72117,1.72095,3.72118,1.00022
0.18,0.370188,1.00009,2.71758,1.71774,3.71777,1.0001
0.19,0.388748,1.00046,2.71378,1.71443,3.71342,0.99996
0.2,0.407587,1.0001,2.7098,1.71014,3.7097,0.99988
0.21,0.428751,0.999981,2.70563,1.70559,3.70572,1.00005
0.22,0.450556,0.999784,2.70123,1.70083,3.70164,1.00019
0.23,0.46728,1.00033,2.69664,1.69664,3.69601,1.00002
0.24,0.485958,1.00073,2.69187,1.6927,3.6911,0.999936
0.25,0.506796,1.00041,2.68691,1.68748,3.6871,1.00022
0.26,0.523752,1.00057,2.68176,1.68183,3.68154,1.00042
0.27,0.542731,1.00065,2.67643,1.67685,3.67582,1.00013
0.28,0.564052,1.00091,2.67089,1.67206,3.67027,1.00002
0.29,0.579563,1.00056,2.66518,1.66531,3.66449,1.00015
0.3,0.598346,0.99996,2.65929,1.65882,3.6594,1.00025
0.31,0.616786,1.00037,2.65321,1.65401,3.65348,1.0001
0.32,0.633694,1.00049,2.64696,1.64748,3.64621,0.999851
0.33,0.654146,1.00029,2.64053,1.64067,3.64022,1.00006
0.34,0.671377,1.00018,2.6339,1.63421,3.63447,1.0003
0.35,0.690944,1.00046,2.62709,1.62697,3.62649,1.00022
0.36,0.708566,1.00101,2.62009,1.6208,3.61905,1.00013
0.37,0.725382,1.00109,2.61292,1.61417,3.61237,1.0002
0.38,0.743012,1.00072,2.60557,1.60589,3.60539,1.00047
0.39,0.760796,1.00095,2.59806,1.59842,3.59732,1.0004
0.4,0.779443,1.00093,2.59035,1.59149,3.58991,1.00015
0.41,0.797396,1.00104,2.58247,1.58311,3.58138,1.00018
0.42,0.815506,1.0003,2.5744,1.57428,3.57421,1.00027
0.43,0.833531,1.00037,2.56616,1.56647,3.56634,1.0003
0.44,0.851707,1.00062,2.55773,1.55836,3.55732,1.0001
0.45,0.869684,1.00095,2.54913,1.54973,3.54799,1.00007
0.46,0.887284,1.0007,2.54034,1.54113,3.54049,1.00038
0.47,0.905482,1.00088,2.53138,1.53162,3.53076,1.00045
0.48,0.922334,1.00141,2.52224,1.52283,3.52079,1.00038
0.49,0.94031,1.00146,2.51293,1.51433,3.51202,1.0003
0.5,0.957659,1.00155,2.50344,1.50485,3.50262,1.00043
0.51,0.974661,1.00096,2.49378,1.49387,3.4931,1.00058
0.52,0.992309,1.00112,2.48394,1.48491,3.48341,1.00036
0.53,1.00975,1.00147,2.47394,1.47509,3.47258,1.00021
0.54,1.02701,1.00083,2.46375,1.46403,3.46297,1.00029
0.55,1.04447,1.00089,2.4534,1.45395,3.45309,1.00046
0.56,1.06136,1.00091,2.44287,1.4435,3.44245,1.00039
0.57,1.0786,1.0014,2.43217,1.43309,3.43075,1.00023
0.58,1.09555,1.00162,2.4213,1.42275,3.42028,1.00038
0.59,1.11209,1.00119,2.41026,1.41086,3.40982,1.00067
0.6,1.12808,1.0018,2.39906,1.39981,3.39744,1.00062
0.61,1.14503,1.00188,2.38769,1.38918,3.38632,1.00045
0.62,1.16053,1.00192,2.37616,1.37778,3.3751,1.00058
0.63,1.17636,1.00168,2.36448,1.3654,3.3633,1.00063
0.64,1.1931,1.00124,2.35264,1.35336,3.35209,1.00061
0.65,1.21022,1.00172,2.34062,1.34216,3.33954,1.00041
0.66,1.22726,1.00169,2.32843,1.32938,3.3266,1.00029
0.67,1.24377,1.00131,2.31608,1.31686,3.31547,1.00062
0.68,1.26001,1.00144,2.30356,1.30475,3.30306,1.00059
0.69,1.27616,1.00195,2.29088,1.29212,3.28922,1.0005
0.7,1.29235,1.00209,2.27804,1.27947,3.27647,1.00059
0.71,1.30833,1.00225,2.26503,1.26692,3.26387,1.00072
0.72,1.32443,1.00227,2.25187,1.25294,3.25024,1.00092
0.73,1.34041,1.00216,2.23855,1.2399,3.23709,1.00075
0.74,1.35601,1.0026,2.22507,1.22722,3.22318,1.00058
0.75,1.37182,1.00208,2.21143,1.21282,3.21004,1.00069
0.76,1.38802,1.00179,2.19763,1.19874,3.1967,1.00078
0.77,1.40414,1.00208,2.18367,1.18533,3.18255,1.00069
0.78,1.42009,1.00218,2.16954,1.17079,3.16762,1.00059
0.79,1.43573,1.00243,2.15527,1.15698,3.15347,1.00067
0.8,1.45149,1.00203,2.14083,1.14229,3.13997,1.00087
0.81,1.46674,1.00238,2.12624,1.12755,3.12463,1.00092
0.82,1.48176,1.00283,2.1115,1.11346,3.10928,1.00074
0.83,1.4981,1.00284,2.0966,1.09895,3.09502,1.00087
0.84,1.51349,1.00289,2.08154,1.08344,3.07982,1.00108
0.85,1.52892,1.00279,2.06633,1.06787,3.06431,1.00101
0.86,1.54426,1.003,2.05097,1.05325,3.04913,1.00093
0.87,1.5591,1.003,2.03545,1.03776,3.03339,1.0008
0.88,1.57443,1.00252,2.01978,1.02141,3.01823,1.00093
0.89,1.58949,1.00235,2.00396,1.00556,3.00285,1.001
0.9,1.60408,1.00278,1.988,0.989928,2.98596,1.00079
0.91,1.61855,1.00304,1.97189,0.973879,2.9695,1.00085
0.92,1.63283,1.00285,1.95563,0.95786,2.95422,1.00103
0.93,1.64681,1.00324,1.93923,0.941198,2.93711,1.00119
0.94,1.66052,1.0034,1.9227,0.924771,2.92031,1.00116
0.95,1.67427,1.00372,1.90603,0.908987,2.9037,1.00107
0.96,1.68788,1.00369,1.88922,0.891885,2.8869,1.00119
0.97,1.70151,1.00317,1.87227,0.873877,2.87011,1.00128
0.98,1.71554,1.00353,1.85519,0.857758,2.85302,1.00115
0.99,1.7294,1.00358,1.83796,0.840693,2.83553,1.00099
1,1.74285,1.00344,1.8206,0.82301,2.81825,1.00105
1.01,1.75641,1.00326,1.8031,0.805477,2.80129,1.00116
1.02,1.76977,1.00341,1.78547,0.787836,2.78342,1.00119
1.03,1.78238,1.00378,1.76771,0.77026,2.76494,1.00112
1.04,1.79513,1.00377,1.74983,0.75262,2.74747,1.00118
1.05,1.80695,1.00386,1.73182,0.734341,2.72958,1.00147
1.06,1.81879,1.00408,1.71369,0.716168,2.71092,1.00144
1.07,1.83075,1.00442,1.69544,0.698778,2.69263,1.00133
1.08,1.84218,1.00463,1.67708,0.680729,2.67418,1.00134
1.09,1.85365,1.0043,1.6586,0.661396,2.65566,1.00142
1.1,1.86523,1.00411,1.64001,0.642768,2.63753,1.00149
1.11,1.87645,1.00413,1.6213,0.624455,2.61884,1.00131
1.12,1.88734,1.00422,1.60248,0.605403,2.59948,1.00125
1.13,1.89817,1.00396,1.58355,0.586448,2.58138,1.00142
1.14,1.9084,1.00429,1.56452,0.567674,2.56215,1.00152
1.15,1.91819,1.00474,1.54539,0.548618,2.54217,1.0015
1.16,1.92713,1.00485,1.52616,0.529641,2.52291,1.00147
1.17,1.93564,1.00519,1.50685,0.510797,2.50365,1.0016
1.18,1.94404,1.00505,1.48745,0.490817,2.48427,1.00175
1.19,1.95219,1.00515,1.46797,0.471748,2.46496,1.00174
1.2,1.95955,1.00546,1.44841,0.452767,2.44512,1.00161
1.21,1.96651,1.00526,1.42878,0.432557,2.42542,1.00167
1.22,1.97351,1.0051,1.40908,0.412841,2.40623,1.00178
1.23,1.98027,1.00515,1.38931,0.393229,2.38639,1.00171
1.24,1.98612,1.00542,1.36948,0.373337,2.36577,1.00162
1.25,1.99096,1.00542,1.3496,0.35376,2.34619,1.00161
1.26,1.99446,1.00548,1.32967,0.33418,2.32692,1.00183
1.27,1.99717,1.00583,1.30971,0.314107,2.30635,1.00193
1.28,1.99923,1.00614,1.28973,0.294318,2.28579,1.00185
1.29,1.99976,1.00655,1.26974,0.275024,2.26594,1.00197
1.3,1.99894,1.00663,1.24974,0.254973,2.24602,1.00212
1.31,1.99787,1.0067,1.22976,0.234896,2.22594,1.00219
1.32,1.99541,1.00685,1.20979,0.215411,2.20601,1.00211
1.33,1.99089,1.00714,1.18986,0.195855,2.1857,1.00203
1.34,1.98519,1.00716,1.16998,0.176089,2.16612,1.00214
1.35,1.97843,1.0072,1.15017,0.156479,2.14663,1.00224
1.36,1.97011,1.0077,1.13042,0.136979,2.12612,1.00223
1.37,1.95912,1.00798,1.11078,0.117824,2.10641,1.00223
1.38,1.94464,1.00851,1.09126,0.0994553,2.08732,1.00239
1.39,1.92651,1.0092,1.0719,0.0806368,2.06753,1.00258
1.4,1.90565,1.00985,1.05274,0.0620877,2.04795,1.00272
1.41,1.87974,1.01114,1.03381,0.0451823,2.02875,1.00283
1.42,1.84639,1.0128,1.01518,0.0292709,2.00998,1.00303
1.43,1.80407,1.01543,0.996929,0.0150039,1.99106,1.00328
1.44,1.74927,1.01983,0.979156,0.00488148,1.97303,1.00359
1.45,1.67441,1.02692,0.962022,-0,1.9554,1.00402
1.46,1.56797,1.03701,0.945782,-0,1.93763,1.00467
1.47,1.41104,1.04748,0.930841,3.05442e-05,1.92074,1.00596
1.48,1.19394,1.05903,0.917766,3.29302e-05,1.90486,1.00863
1.49,0.921958,1.07196,0.907143,3.49774e-05,1.88923,1.01257
1.5,0.617338,1.08389,0.899425,3.65104e-05,1.87498,1.01612
1.51,0.291669,1.0944,0.894865,3.76298e-05,1.86125,1.01846
1.52,-0.0442814,1.09849,0.893621,3.83954e-05,1.85631,1.01955
1.53,-0.368602,1.09482,0.8957,3.89584e-05,1.86205,1.01928
1.54,-0.678741,1.08508,0.900936,3.18378e-05,1.87425,1.01683
1.55,-0.972839,1.07259,0.909202,2.49849e-05,1.8885,1.01278
1.56,-1.2292,1.0586,0.920252,2.13077e-05,1.906,1.00884
1.57,-1.4223,1.04533,0.933562,1.79568e-05,1.92442,1.00582
1.58,-1.54921,1.03371,0.948463,-0,1.9419,1.00368
1.59,-1.62426,1.02312,0.96436,-0,1.95901,1.00215
1.6,-1.65637,1.01315,0.980783,-0,1.97733,1.00166
1.61,-1.65569,1.00417,0.997362,-0,1.99492,1.00161
1.62,-1.62845,0.999265,1.01379,0.00780565,2.01165,1.00118
1.63,-1.58554,0.999275,1.02987,0.0256373,2.02788,1.0004
1.64,-1.54573,0.999525,1.04551,0.0440542,2.04364,0.999316
1.65,-1.52012,0.998433,1.06082,0.0619267,2.06129,0.998115
1.66,-1.50462,0.99966,1.07594,0.0796042,2.07889,0.999301
1.67,-1.4955,1.00139,1.09093,0.0969175,2.09581,1.00084
1.68,-1.48832,1.0054,1.10585,0.112829,2.10596,1.00195
1.69,-1.47993,1.01143,1.12069,0.127293,2.11076,1.00307
1.7,-1.46838,1.01324,1.13543,0.141821,2.1235,1.00396
1.71,-1.45912,1.014,1.15006,0.158104,2.14033,1.00499
1.72,-1.46117,1.01062,1.16466,0.172391,2.15883,1.00377
1.73,-1.47321,1.00828,1.17932,0.190032,2.17704,1.00173
1.74,-1.48341,1.00281,1.19412,0.199633,2.19463,1.0003
1.75,-1.47047,0.99683,1.2089,0.205069,2.21059,0.999583
1.76,-1.43931,0.995549,1.22346,0.216309,2.22365,0.999202
1.77,-1.40527,0.994926,1.23768,0.232396,2.23873,0.998079
1.78,-1.37466,0.998067,1.25157,0.25024,2.25074,0.998317
1.79,-1.35169,0.999841,1.26519,0.268139,2.26794,0.999739
1.8,-1.33532,1.00247,1.27862,0.284445,2.28264,1.00157
1.81,-1.32286,1.0077,1.29191,0.299161,2.28902,1.00259
1.82,-1.31057,1.01074,1.30508,0.310833,2.29535,1.00291
1.83,-1.29562,1.01224,1.31811,0.323674,2.30717,1.00388
1.84,-1.28307,1.00913,1.331,0.334019,2.323,1.00357
1.85,-1.27536,1.00668,1.34378,0.349592,2.34068,1.0022
1.86,-1.27293,1.00263,1.35652,0.362766,2.35753,1.00001
1.87,-1.2648,0.996903,1.36922,0.369429,2.37306,0.998711
1.88,-1.2443,0.993981,1.38178,0.375511,2.38499,0.998692
1.89,-1.21578,0.992835,1.39408,0.386366,2.39714,0.998182
1.9,-1.18487,0.996782,1.40608,0.401759,2.40491,0.998351
1.91,-1.15651,0.999902,1.41778,0.418077,2.41669,0.99921
1.92,-1.13412,1.00332,1.42923,0.435204,2.43108,1.00125
1.93,-1.11834,1.00663,1.44049,0.447961,2.4404,1.00283
1.94,-1.10582,1.00941,1.45161,0.458408,2.44554,1.00292
1.95,-1.09268,1.01115,1.4626,0.468457,2.45246,1.00306
1.96,-1.07751,1.0074,1.47345,0.474751,2.46541,1.00269
1.97,-1.06406,1.00425,1.48416,0.484627,2.47996,1.00191
1.98,-1.0516,1.0002,1.49473,0.497451,2.49669,0.999821
1.99,-1.04039,0.996261,1.50519,0.506474,2.51014,0.998086
2,-1.02241,0.993918,1.51551,0.51236,2.52032,0.997875
2.01,-0.998833,0.992184,1.52562,0.518163,2.53032,0.998214
2.02,-0.972167,0.995969,1.53548,0.529902,2.53559,0.998803
2.03,-0.944119,1.00012,1.54506,0.54314,2.54162,0.999356
2.04,-0.921059,1.00443,1.55438,0.559438,2.55265,1.00102
2.05,-0.903296,1.00688,1.5635,0.57114,2.56297,1.00276
2.06,-0.888413,1.0083,1.57246,0.579819,2.56973,1.00321
2.07,-0.874455,1.00966,1.58128,0.587544,2.57375,1.00269
2.08,-0.859161,1.00642,1.58994,0.59199,2.5826,1.0017
2.09,-0.841525,1.00224,1.59845,0.595941,2.59375,1.00115
2.1,-0.826095,0.997742,1.60678,0.604922,2.60869,0.99962
2.11,-0.811337,0.994917,1.61497,0.614749,2.62081,0.997933
2.12,-0.793337,0.993577,1.623,0.621537,2.62915,0.997359
2.13,-0.774163,0.993005,1.63084,0.626284,2.63621,0.997933
2.14,-0.749191,0.996048,1.63845,0.63333,2.63991,0.999324
2.15,-0.724398,1.00036,1.64582,0.642748,2.64208,1.00002
2.16,-0.701244,1.00587,1.65295,0.656946,2.64753,1.00114
2.17,-0.682488,1.00766,1.65986,0.66745,2.65733,1.00256
2.18,-0.667662,1.00784,1.66661,0.673986,2.66475,1.00319
2.19,-0.652052,1.00754,1.67321,0.679369,2.66948,1.00255
2.2,-0.634899,1.00435,1.67965,0.681833,2.67513,1.00098
2.21,-0.617122,1.00077,1.68591,0.683088,2.68154,0.999996
2.22,-0.596638,0.995549,1.69198,0.686232,2.69325,0.999044
2.23,-0.575572,0.993428,1.69784,0.694997,2.70408,0.997938
2.24,-0.557181,0.993408,1.7035,0.702298,2.70986,0.997166
2.25,-0.535496,0.994122,1.70897,0.707068,2.71463,0.997882
2.26,-0.512248,0.997276,1.71421,0.711865,2.71643,0.999552
2.27,-0.487812,1.00093,1.71921,0.716544,2.71612,1.00072
2.28,-0.463966,1.00639,1.72397,0.726251,2.71687,1.00167
2.29,-0.445974,1.0085,1.72851,0.735555,2.72325,1.00229
2.3,-0.430156,1.00765,1.7329,0.739798,2.73032,1.00288
2.31,-0.41185,1.00579,1.73711,0.742927,2.73593,1.00227
2.32,-0.391034,1.00217,1.74112,0.743808,2.7404,1.00046
2.33,-0.372351,0.998714,1.74494,0.74188,2.74298,0.999264
2.34,-0.35213,0.994233,1.74857,0.741212,2.74929,0.998249
2.35,-0.330141,0.992663,1.75198,0.746764,2.75723,0.997858
2.36,-0.309531,0.993013,1.75517,0.752291,2.76157,0.997619
2.37,-0.292876,0.995567,1.75819,0.757632,2.76282,0.998149
2.38,-0.273351,0.99932,1.76102,0.762144,2.76317,0.999831
2.39,-0.253163,1.00227,1.76365,0.763374,2.76129,1.00123
2.4,-0.234085,1.00696,1.76609,0.767559,2.75815,1.00222
2.41,-0.217631,1.00812,1.76834,0.773082,2.76185,1.00245
2.42,-0.202472,1.0074,1.77044,0.776662,2.76682,1.00244
2.43,-0.185278,1.00459,1.77238,0.777186,2.7716,1.00178
2.44,-0.168606,1.0003,1.77415,0.77651,2.77644,1.00026
2.45,-0.150267,0.997542,1.77575,0.773741,2.77612,0.998727
2.46,-0.127487,0.993521,1.77714,0.769785,2.77835,0.997776
2.47,-0.105703,0.992358,1.7783,0.771212,2.78236,0.997891
2.48,-0.0924441,0.993463,1.77928,0.775244,2.7842,0.997913
2.49,-0.0808738,0.99663,1.78016,0.779265,2.78351,0.998744
2.5,-0.0646,1.00121,1.78089,0.784847,2.78259,1.00008
2.51,-0.0380823,1.00377,1.7814,0.784298,2.77948,1.00135
2.52,-0.0169556,1.00662,1.78166,0.783544,2.77558,1.00261
2.53,-0.000608923,1.0079,1.78176,0.785197,2.7741,1.0023
2.54,0.0138222,1.00641,1.7817,0.786652,2.77827,1.00219
